197
262
249
257
257
257
262
274
272
263
253
249
251
260
272
267
269
264
266
253
253
154
362
272
273
268
260
250
260
261
155
368
274
265
264
257
250
245
260
275
265
263
260
256
252
255
256
262
176
362
265
255
248
251
247
264
269
267
258
264
259
250
251
255
264
274
270
262
256
252
258
256
264
267
270
264
261
254
253
249
267
171
374
262
262
251
253
256
254
262
265
275
264
249
248
165
349
271
270
265
257
262
255
249
253
256
266
271
269
255
245
254
260
256
264
268
264
261
255
248
251
253
265
273
269
259
251
248
256
259
261
264
268
276
258
246
249
259
263
273
267
160
358
262
253
249
251
264
262
267
266
252
243
255
256
258
256
264
263
255
254
246
247
250
269
265
264
251
246
242
252
254
249
259
264
269
155
339
245
247
250
263
264
264
253
252
253
250
246
255
266
268
265
255
250
244
257
258
265
264
265
256
255
257
251
251
266
278
263
255
255
249
254
258
258
266
267
273
254
251
247
149
352
275
269
263
257
255
254
254
249
261
267
273
265
254
249
248
260
262
268
260
267
253
253
253
251
249
265
274
263
250
250
249
247
256
255
262
161
361
259
249
242
247
250
265
269
260
253
250
255
246
250
257
266
265
268
252
248
247
159
361
271
261
265
260
256
140
360
258
266
276
268
256
249
252
252
260
261
269
261
268
257
249
246
255
254
268
272
264
249
255
258
248
249
262
265
265
266
253
244
248
262
259
267
261
262
253
257
254
249
254
271
274
265
251
251
246
254
260
262
271
266
270
256
251
248
256
260
272
271
266
252
253
260
254
254
268
269
269
270
253
246
255
270
265
266
271
268
257
255
253
256
262
278
271
266
255
253
248
263
268
268
266
274
264
254
248
252
259
271
275
260
258
156
355
251
253
261
267
262
262
253
250
243
256
266
266
258
264
257
251
253
248
254
259
273
150
368
252
250
244
256
265
265
261
266
262
248
243
250
255
265
271
261
254
252
256
248
255
261
270
263
266
255
249
245
256
266
271
263
262
257
255
255
250
256
170
371
268
256
248
251
251
255
265
268
258
267
259
252
244
255
257
270
275
264
251
251
262
251
252
267
271
267
266
254
142
356
267
266
270
266
262
254
257
256
255
260
271
275
265
252
249
253
255
261
264
266
263
265
250
249
246
259
262
273
268
263
247
253
258
257
255
269
267
270
261
252
248
253
271
267
267
264
265
249
257
255
256
264
279
272
263
253
248
250
264
270
267
264
270
262
253
248
255
264
273
273
264
259
251
257
255
259
264
270
147
379
256
251
248
260
271
272
258
259
252
251
256
253
258
265
276
260
251
248
252
250
260
267
267
262
266
257
252
251
260
263
275
274
258
251
253
257
157
362
266
266
266
259
247
249
249
263
266
268
263
255
248
251
253
253
259
268
275
260
245
247
252
253
261
151
383
264
263
254
249
249
260
165
370
277
259
247
255
258
257
259
269
265
265
261
247
251
257
272
267
268
266
260
252
255
254
261
263
271
268
262
248
248
174
341
270
263
266
257
262
248
249
249
264
270
267
264
257
243
254
257
257
255
267
261
260
259
245
246
258
274
264
263
262
255
250
255
255
261
263
275
268
258
249
248
251
266
272
267
265
263
260
253
249
256
267
272
269
258
254
247
257
253
260
261
271
264
257
254
250
248
262
274
269
260
262
251
253
257
258
265
268
276
264
253
250
255
256
271
270
268
263
266
256
254
255
263
164
376
270
255
248
254
256
256
260
262
264
262
254
245
250
255
266
268
267
258
255
249
252
257
262
260
269
273
260
244
248
253
261
270
270
264
264
265
251
249
258
270
270
274
266
257
248
261
258
265
267
267
261
261
260
247
251
265
277
271
264
261
255
257
260
257
267
271
278
263
255
250
257
257
268
274
269
260
259
257
254
252
263
269
273
273
260
248
256
263
263
264
270
269
262
263
251
254
260
278
269
269
261
257
254
260
258
266
267
276
265
256
252
254
253
270
274
269
262
263
257
255
253
260
269
274
170
362
255
250
262
266
264
269
272
263
260
253
254
256
278
274
269
263
260
252
256
263
270
267
277
269
141
360
253
253
263
278
267
258
261
258
252
247
256
268
268
152
372
257
247
252
258
265
263
263
260
256
252
247
250
262
274
267
259
255
255
251
253
256
264
264
274
260
251
245
252
252
268
276
265
258
256
259
251
247
262
266
273
272
256
250
254
263
261
171
369
271
262
262
252
254
260
276
275
274
265
256
255
262
265
270
270
277
273
259
252
255
261
274
282
275
267
264
265
260
252
268
275
276
275
261
251
257
268
263
268
273
271
264
263
254
254
265
282
270
270
262
256
254
261
263
162
374
278
263
259
249
252
257
272
273
266
261
261
259
256
254
263
271
277
269
256
251
252
264
261
264
267
268
259
252
253
256
254
275
273
270
259
255
249
256
267
264
261
271
271
253
243
251
253
264
273
264
263
257
259
247
250
257
266
264
267
259
251
246
253
255
265
262
263
260
258
253
246
251
255
272
269
263
250
252
248
254
261
265
262
271
267
254
243
250
255
263
273
265
258
255
259
247
249
258
266
262
267
259
149
344
257
258
263
261
261
257
257
253
246
248
259
273
265
262
251
251
249
256
256
265
263
265
261
252
241
247
251
264
268
262
257
250
252
245
245
249
263
259
261
257
247
237
247
257
259
256
258
260
250
249
245
242
249
267
264
260
250
141
345
250
253
250
256
259
263
244
241
237
226
253
252
262
244
248
242
239
239
240
243
252
255
259
257
243
241
241
253
252
255
254
261
252
245
245
247
245
259
268
261
249
249
247
246
250
252
262
261
265
259
249
243
251
248
264
273
260
255
255
258
248
252
257
269
268
268
258
250
251
259
263
268
267
265
260
257
253
251
255
266
276
270
258
251
252
256
256
261
268
265
272
259
250
248
256
258
271
274
267
255
258
256
253
253
266
266
271
270
253
246
257
264
263
266
272
263
261
259
249
254
262
276
264
269
259
254
253
261
264
267
270
276
267
260
249
257
261
277
275
273
262
264
261
258
255
266
272
270
267
256
250
256
267
268
264
272
268
262
262
255
257
265
282
267
264
262
256
258
266
269
272
275
285
264
259
256
261
267
275
268
269
260
261
253
257
261
269
271
272
265
255
247
258
262
270
265
267
264
259
255
250
254
259
280
269
262
255
254
250
254
259
263
262
270
263
250
244
250
249
264
271
260
254
253
253
243
244
254
262
185
335
255
243
237
246
251
255
253
257
253
252
247
241
245
249
262
263
261
247
243
240
247
247
249
257
256
262
249
242
237
243
245
257
264
256
249
245
249
240
238
248
258
253
258
253
243
232
242
251
250
249
252
254
243
242
239
235
235
254
263
252
245
244
242
237
244
244
252
252
257
256
245
234
239
243
250
258
256
258
247
244
247
244
239
246
260
262
257
245
245
238
247
250
257
251
256
252
249
246
240
242
250
266
259
255
251
246
239
248
253
253
254
263
266
249
242
245
248
252
265
264
259
251
254
249
249
246
256
264
269
268
248
244
246
257
252
261
259
262
252
250
248
246
247
259
271
264
249
248
245
242
247
246
258
255
261
263
246
237
243
245
258
266
257
253
249
248
242
243
247
258
259
265
262
248
241
252
257
253
259
266
260
258
251
247
247
253
266
263
264
253
246
240
250
251
250
256
262
266
252
244
243
247
251
260
262
259
253
251
250
246
238
251
258
262
259
248
244
237
247
248
148
354
260
249
245
245
238
237
241
259
253
253
248
239
232
238
244
238
246
249
255
243
236
226
228
231
244
494
247
142
323
249
228
225
257
224
245
247
244
233
229
235
219
256
244
242
248
241
254
216
226
229
226
245
244
244
231
230
221
239
228
235
234
240
246
250
237
227
230
231
241
230
251
243
240
237
241
229
230
231
240
240
249
250
235
231
170
289
237
238
238
242
240
238
235
226
225
227
237
245
245
242
233
231
227
230
233
232
243
242
250
243
237
224
227
230
240
244
245
246
235
237
236
174
279
235
241
241
245
246
233
224
224
236
231
235
238
240
235
236
231
223
221
222
238
246
237
233
235
229
222
226
232
149
315
244
246
233
233
222
222
223
234
239
239
243
234
236
232
226
223
226
233
239
245
244
235
226
226
228
232
235
233
240
242
241
233
228
228
223
235
515
213
240
237
225
224
237
232
237
245
249
242
236
224
215
238
232
242
241
241
234
241
216
245
225
471
241
248
249
232
229
232
238
231
243
243
244
244
244
236
228
232
231
244
249
251
242
237
235
233
232
232
242
237
247
249
241
225
227
230
228
235
246
242
144
329
243
227
226
223
232
238
245
150
338
235
224
233
230
230
233
243
242
239
237
230
225
223
234
243
240
243
241
235
226
232
233
229
237
242
250
245
240
227
224
228
234
240
241
243
238
243
237
230
223
227
237
240
245
244
237
230
227
234
229
234
236
243
242
240
238
227
227
223
235
244
244
234
239
237
225
228
233
229
230
243
250
237
234
226
226
223
232
238
237
239
239
241
232
227
220
228
233
237
244
243
235
228
227
231
225
232
233
240
239
243
237
225
226
223
230
242
240
233
236
236
225
230
231
226
233
241
253
245
239
227
227
228
232
239
239
242
238
243
237
227
219
230
236
237
244
251
239
229
232
237
229
234
244
247
242
248
245
230
229
138
340
248
250
246
243
238
239
241
234
238
247
258
250
249
237
236
234
242
248
247
251
250
252
241
239
232
239
241
254
258
250
245
237
243
238
240
241
251
250
253
251
238
233
235
250
247
251
250
251
241
239
242
233
236
247
261
249
246
241
235
229
237
246
242
248
249
254
239
239
232
231
238
251
257
246
247
239
239
237
239
238
246
252
256
250
235
236
233
240
244
251
245
248
244
242
238
233
237
242
254
257
252
241
239
236
239
243
246
250
248
256
249
239
230
238
239
249
258
251
247
241
245
239
236
236
245
250
254
252
239
234
233
243
243
248
247
249
245
244
239
230
236
238
250
256
253
243
237
235
237
240
240
247
248
250
251
240
227
230
239
248
252
253
256
243
247
243
239
235
248
255
258
257
247
155
320
250
247
252
255
258
251
250
246
239
236
241
261
255
254
247
244
234
243
248
243
250
259
264
248
240
241
241
243
256
260
257
251
253
247
241
236
245
255
260
259
251
249
236
138
351
253
252
255
257
254
247
241
241
240
256
260
256
251
246
240
240
245
242
248
254
264
249
241
236
240
236
247
260
254
249
249
250
237
237
241
249
250
261
258
246
238
242
248
244
249
256
256
250
251
240
236
236
249
256
251
248
246
246
236
239
483
248
258
258
250
234
234
241
241
247
255
256
246
250
246
238
232
239
247
255
253
253
246
232
242
244
243
242
251
253
251
246
236
235
232
248
254
253
247
250
240
240
243
234
240
249
255
251
251
233
234
229
239
242
244
166
329
251
242
235
229
233
240
246
253
245
242
231
233
238
236
231
244
250
247
244
237
232
229
236
248
245
245
243
244
232
231
233
232
235
241
202
299
239
230
230
222
234
159
328
248
244
252
242
235
231
238
241
254
261
250
245
241
245
237
241
245
254
253
259
254
237
237
240
249
249
258
253
251
246
245
244
239
243
254
267
257
252
243
243
241
243
251
255
252
256
260
241
234
240
247
254
259
260
256
246
249
247
243
243
254
261
259
260
245
241
242
253
254
259
259
259
248
248
249
242
243
258
267
256
251
248
244
241
248
250
256
258
265
254
248
239
241
245
259
267
256
255
252
252
245
246
250
262
262
267
258
252
242
249
256
258
255
263
258
257
250
244
244
250
269
