111
232
228
236
241
239
236
242
229
225
216
226
222
233
236
234
227
228
223
216
210
218
220
230
234
228
227
212
223
214
222
216
223
227
240
243
225
220
225
234
226
226
237
242
246
243
229
225
230
235
239
235
246
247
246
242
232
231
236
252
208
288
251
251
244
243
236
232
249
263
256
249
250
242
246
239
240
251
268
257
250
247
239
245
247
244
249
268
261
251
245
243
242
250
248
253
261
267
250
238
241
240
250
256
259
257
268
251
239
240
244
257
261
260
255
201
309
239
248
247
261
270
260
253
261
251
244
244
254
262
273
260
250
253
256
248
243
201
318
265
262
247
245
257
249
246
259
262
266
259
249
247
257
252
256
263
263
266
260
246
241
256
257
261
260
261
256
255
244
242
251
268
262
253
260
248
252
248
248
250
273
264
253
254
248
247
228
269
246
264
264
256
240
242
238
248
247
255
259
268
255
239
242
240
251
258
252
252
267
251
241
238
243
248
262
256
251
259
255
240
234
243
243
256
257
254
245
252
240
235
241
248
262
267
253
246
250
248
246
244
258
266
268
254
246
252
252
248
252
264
262
267
252
242
245
255
250
250
259
252
258
247
239
233
249
252
253
250
258
256
252
240
237
254
262
262
255
258
249
250
241
243
252
267
261
253
254
244
246
250
246
248
267
264
256
248
247
244
253
251
252
265
273
256
240
246
242
252
257
263
258
272
255
243
245
249
258
265
261
256
262
253
246
241
249
258
268
259
254
257
254
246
241
253
256
269
262
252
251
259
244
201
291
253
269
259
248
237
248
238
237
241
248
249
244
235
230
226
244
235
235
242
248
250
248
229
228
240
249
249
246
254
251
252
244
239
246
266
262
257
265
257
258
253
251
252
278
272
264
265
257
258
255
256
260
281
273
257
255
250
258
254
257
265
281
261
251
249
244
252
257
257
259
272
260
247
248
248
255
256
279
259
270
260
248
243
252
256
267
265
259
261
263
250
243
256
263
272
267
262
257
259
250
245
258
262
273
265
256
250
263
251
253
265
266
276
265
251
245
263
255
254
269
264
269
262
251
244
267
260
260
266
261
256
252
241
237
257
256
256
248
245
244
236
227
227
230
254
237
239
232
229
228
235
222
225
236
252
238
231
234
229
231
235
230
234
246
254
241
229
231
228
236
240
240
242
255
255
246
231
235
234
246
248
253
252
263
250
238
237
241
254
265
255
254
265
258
245
240
251
255
270
263
256
260
259
248
243
253
259
270
265
259
246
258
246
242
253
260
270
268
254
241
252
250
253
252
264
265
261
244
241
247
254
252
254
261
253
257
245
241
242
261
256
258
260
257
255
254
247
241
267
270
262
255
255
252
253
243
246
266
272
263
249
252
248
251
247
251
267
271
261
188
305
242
256
249
195
325
271
257
243
242
239
248
255
254
251
264
246
237
238
242
251
262
262
254
265
254
242
240
249
258
269
259
256
262
253
248
241
253
259
272
261
252
255
257
250
245
259
263
271
262
251
251
258
250
246
262
263
270
262
251
247
263
255
256
269
265
270
258
253
247
261
259
261
264
261
264
257
246
241
261
263
262
255
259
250
248
239
240
258
241
287
249
256
242
249
248
246
253
272
259
248
242
241
246
251
246
248
264
268
256
238
247
248
257
256
260
273
271
257
194
304
254
275
265
264
275
267
251
248
254
257
273
266
261
268
258
250
247
256
267
279
263
257
261
253
201
293
259
276
273
260
250
260
250
247
251
262
269
270
252
240
254
250
248
255
265
266
268
251
240
250
257
257
253
266
263
263
248
244
255
266
267
264
270
267
262
248
250
260
270
269
264
268
257
262
251
253
266
279
272
266
264
254
262
256
256
273
283
270
257
260
254
259
258
263
273
277
263
247
252
249
257
258
263
268
269
257
245
247
248
264
266
262
262
270
252
243
251
253
272
270
262
264
270
250
246
194
322
272
272
261
258
263
252
246
261
267
273
222
298
254
264
252
253
263
268
272
259
247
253
259
254
255
268
265
272
254
245
256
260
262
261
272
267
266
250
245
257
264
267
263
269
266
260
248
248
263
270
270
261
263
261
260
246
246
271
272
264
261
256
252
256
245
247
268
273
219
297
254
251
254
256
259
270
277
267
251
253
251
259
264
265
270
276
261
246
250
252
266
266
268
269
270
253
247
254
254
274
269
265
265
267
252
247
260
261
278
212
324
257
269
255
249
265
269
276
264
255
256
261
256
252
268
269
273
259
249
260
259
260
263
271
275
271
251
244
259
258
262
262
267
266
266
251
242
260
264
264
261
266
263
258
250
248
267
268
266
265
262
261
255
250
252
274
270
265
264
253
256
255
251
256
276
269
255
257
249
255
258
255
263
282
269
255
252
250
256
259
263
267
278
264
251
249
250
261
268
268
262
274
254
247
246
248
262
276
264
257
266
253
247
242
255
261
272
263
251
259
255
247
247
259
262
268
261
253
248
255
250
248
263
266
273
261
253
251
263
258
257
270
268
273
257
247
257
263
262
263
271
264
266
252
246
260
267
268
263
271
261
258
249
246
260
270
269
261
264
258
257
249
249
268
274
268
260
256
255
258
251
250
276
270
261
261
252
255
259
257
258
278
269
257
254
250
256
259
262
263
277
267
252
247
251
259
265
263
265
278
259
248
250
252
263
270
267
264
273
253
245
249
253
263
275
267
255
263
252
248
250
260
272
276
265
253
229
284
253
257
269
275
272
263
250
259
256
259
263
272
273
272
253
247
258
258
263
268
268
268
264
248
246
258
265
265
261
267
257
258
246
244
263
271
266
262
262
258
255
249
250
272
269
268
263
257
257
260
254
257
279
271
263
260
249
257
260
256
262
280
266
253
251
249
255
259
260
263
277
262
246
248
246
258
257
264
263
273
258
247
250
247
262
267
265
261
269
252
242
246
247
264
270
261
256
211
306
239
252
254
264
269
262
249
255
246
245
246
258
266
270
260
249
250
251
250
198
317
261
272
252
246
249
258
252
253
267
262
267
253
247
250
263
260
259
272
262
262
254
249
250
270
268
262
267
260
258
254
251
253
277
273
261
262
253
260
252
252
262
282
270
260
257
248
256
251
255
266
279
265
252
255
247
256
257
263
268
278
264
250
251
252
260
263
265
271
272
257
246
253
257
268
264
262
272
261
248
245
252
257
274
268
261
273
259
251
252
261
271
280
270
260
266
256
249
254
263
276
275
265
256
266
253
251
260
266
273
269
256
249
260
249
250
265
264
268
266
253
244
256
254
257
262
267
265
264
248
246
259
265
266
261
239
293
254
250
247
261
268
268
260
263
256
254
227
269
263
275
268
259
256
248
254
251
251
268
277
265
252
253
247
254
255
257
271
276
260
247
251
250
257
261
208
331
274
262
248
251
256
265
264
263
268
265
251
246
250
256
274
266
259
266
256
247
242
253
261
270
265
256
262
254
249
247
260
270
276
264
253
259
252
251
253
220
313
272
260
246
256
254
252
255
267
215
326
250
247
258
256
254
260
266
267
265
252
245
257
260
230
300
266
267
259
249
246
257
265
270
262
264
259
258
249
249
261
274
267
259
258
249
253
249
252
263
279
263
256
254
245
254
255
258
263
278
266
185
315
246
262
260
268
265
279
262
247
250
250
263
225
307
266
278
253
245
251
251
266
266
263
264
267
246
243
249
252
266
268
262
255
261
248
243
251
257
270
267
259
251
257
248
244
253
260
235
301
257
256
260
250
249
266
263
272
260
249
249
258
252
254
268
263
268
259
248
246
262
261
257
266
264
264
250
247
251
266
264
261
265
259
260
246
247
251
271
263
259
262
251
253
253
248
251
276
268
258
259
251
253
260
253
254
278
270
259
251
251
254
258
258
259
273
267
257
247
251
255
263
261
263
272
265
254
247
251
258
270
266
260
269
260
247
242
253
258
271
260
257
268
257
248
245
259
268
275
263
255
259
253
248
249
260
272
275
261
250
259
254
251
256
263
269
274
256
243
258
250
253
263
268
271
268
253
246
262
255
256
266
267
269
257
248
247
260
259
262
266
259
264
254
246
245
265
264
259
264
258
256
252
247
248
273
267
258
263
254
253
252
251
249
272
268
259
255
249
252
255
252
254
270
268
261
247
245
249
256
251
255
267
272
256
243
248
248
258
261
263
269
272
253
243
252
251
265
267
265
263
270
252
244
252
256
232
307
264
258
264
253
241
253
260
274
265
258
253
260
248
245
258
260
272
265
252
250
259
252
250
264
264
268
262
251
246
260
252
253
266
263
267
254
247
247
260
258
256
264
262
263
248
243
248
264
259
256
264
257
259
250
244
250
269
265
258
263
255
253
249
248
250
275
269
257
257
251
255
248
249
256
278
263
254
253
244
252
253
253
260
275
263
254
249
247
252
262
260
259
273
262
252
244
248
255
266
266
258
269
264
250
239
251
257
264
262
260
263
254
246
242
252
259
271
263
261
258
260
248
245
258
262
274
267
254
251
262
253
245
266
264
271
263
250
250
261
254
253
265
237
299
255
252
252
262
259
261
267
265
265
249
245
252
261
260
261
266
258
260
247
243
254
266
265
256
265
256
253
246
243
255
270
266
257
260
252
252
246
249
261
273
267
260
257
247
253
251
251
263
274
216
297
249
242
252
248
251
259
271
256
239
241
241
247
250
257
254
266
255
243
239
237
245
247
249
247
249
252
230
224
214
216
221
228
239
246
239
250
227
230
228
236
242
249
244
240
237
246
232
231
242
252
262
264
248
238
245
246
242
242
258
258
260
250
242
245
257
255
255
269
268
273
257
251
261
268
266
269
272
272
270
256
251
269
230
314
269
269
261
258
249
246
263
267
260
265
257
258
257
252
254
278
273
266
264
252
263
256
256
268
286
273
261
264
255
261
258
263
277
281
270
257
260
261
267
267
271
285
279
260
256
257
269
270
268
272
285
262
252
254
254
269
270
270
266
273
252
245
254
253
269
271
268
258
267
252
244
254
254
268
264
253
246
242
230
236
224
250
246
256
234
244
227
246
227
237
240
249
244
252
235
224
258
238
235
234
245
240
231
241
228
224
239
247
250
247
257
253
251
247
243
249
270
267
260
265
261
258
250
250
261
277
270
266
264
257
260
254
251
273
278
245
281
253
255
259
249
250
271
275
261
252
251
251
211
305
258
284
267
262
253
256
261
265
268
272
277
267
253
254
248
262
268
268
266
277
262
247
253
251
266
276
270
273
277
259
252
265
271
281
273
273
274
263
260
258
267
283
285
274
262
239
286
253
268
267
282
278
263
253
266
258
255
268
268
277
268
258
251
272
264
263
274
272
273
258
250
255
269
206
328
267
275
265
252
250
264
276
275
265
269
266
264
249
247
278
237
310
267
267
263
263
256
260
290
275
267
265
261
264
265
266
275
282
275
259
255
258
266
263
270
286
276
263
262
259
268
271
275
279
289
265
255
262
261
270
270
273
278
271
255
252
256
266
274
273
267
277
261
252
259
262
278
279
272
270
273
254
250
265
266
280
271
266
266
267
259
254
275
279
282
273
257
263
268
261
267
276
281
283
263
256
268
266
236
312
275
280
261
256
253
269
264
266
274
266
267
258
255
261
277
273
272
277
265
262
260
256
271
284
276
269
270
266
266
260
266
279
268
255
247
240
244
259
241
243
249
252
251
242
235
239
246
250
246
260
266
256
240
242
241
253
260
263
270
276
262
252
255
262
225
325
269
285
268
