225
262
202
275
183
286
177
272
190
259
175
278
205
311
184
254
237
226
215
230
234
254
247
224
216
266
198
262
171
358
184
195
444
175
320
183
149
444
214
326
253
234
239
237
228
231
229
256
240
302
205
357
179
152
470
211
368
259
178
365
182
325
185
333
267
190
310
185
284
174
328
194
339
184
314
242
189
304
174
309
184
331
211
312
167
270
184
299
184
331
258
234
242
225
255
255
241
243
254
229
278
211
314
168
198
394
208
323
191
365
178
366
185
356
188
361
203
351
234
227
163
311
191
340
195
292
178
302
191
313
171
329
268
270
271
251
249
252
285
289
297
353
203
358
184
365
190
372
233
338
192
316
175
319
190
165
307
409
177
311
201
275
191
377
196
349
265
188
302
180
304
206
341
198
308
187
304
185
324
190
326
185
338
227
192
325
192
313
186
331
336
306
257
280
281
278
273
275
267
270
264
246
247
246
286
298
279
237
241
248
248
252
266
268
247
259
275
241
235
241
250
249
276
279
243
239
239
256
256
270
262
259
250
256
257
240
244
237
265
288
270
241
235
242
247
249
261
263
189
226
350
186
233
308
178
327
197
350
185
305
169
306
202
316
197
329
194
323
187
335
176
320
222
346
207
311
180
288
175
315
243
291
210
292
193
320
184
290
189
306
188
314
257
231
234
199
268
274
274
250
258
259
246
218
292
187
331
191
383
185
318
206
278
239
264
248
286
198
289
194
309
182
284
185
151
417
190
296
242
216
226
244
250
253
223
226
244
190
249
243
221
233
233
180
326
182
287
221
216
229
236
248
264
235
224
220
235
241
236
233
235
255
235
242
243
198
253
198
255
224
307
229
245
225
219
229
231
209
271
237
239
202
283
182
254
217
221
223
249
251
237
190
246
216
238
231
240
166
291
240
219
201
264
173
262
211
224
269
241
232
207
206
214
206
220
217
241
197
253
229
236
215
215
182
222
177
266
243
244
221
217
203
211
227
227
212
246
235
231
212
225
197
243
213
207
183
275
223
256
221
202
199
205
203
227
234
236
198
233
197
259
194
234
198
213
212
232
237
226
200
223
174
226
199
260
192
266
226
212
194
233
179
258
215
229
213
247
231
237
189
231
205
219
191
259
212
283
226
216
212
246
186
262
222
226
239
245
218
247
189
246
219
243
239
245
243
230
219
218
199
265
191
275
195
286
251
242
233
203
218
234
217
252
245
258
200
242
182
288
235
246
233
236
225
167
323
199
259
234
225
262
285
248
231
221
236
215
238
248
241
253
230
235
246
224
224
220
232
243
255
259
256
240
227
227
252
218
281
159
328
202
272
182
307
207
228
193
474
193
160
420
184
334
277
281
275
251
258
173
316
182
276
187
309
207
300
257
235
218
229
250
240
253
227
245
240
237
247
248
250
251
271
283
263
259
229
189
274
213
434
199
340
211
303
192
317
175
319
203
319
185
299
190
265
182
334
201
318
179
279
185
298
169
329
263
205
200
462
179
342
257
258
273
280
265
252
233
202
299
190
320
185
329
190
316
185
307
245
241
273
283
270
190
285
193
276
188
321
189
189
343
181
365
252
228
245
266
266
282
240
288
181
334
204
373
212
383
198
371
190
362
207
341
218
384
273
226
234
239
241
261
271
214
266
237
205
291
238
244
218
299
192
318
202
290
170
292
206
345
208
306
248
174
299
196
301
204
315
207
320
186
264
239
236
237
268
290
213
294
161
389
191
348
187
326
351
291
290
269
257
283
321
295
269
267
265
262
269
284
273
256
263
276
249
249
243
257
261
289
285
248
244
240
271
270
274
244
250
250
244
249
256
246
249
278
302
262
252
242
240
233
262
292
267
263
256
212
310
193
309
201
318
209
327
224
270
175
292
211
326
211
288
184
280
186
294
196
234
307
219
317
190
292
177
263
189
321
208
333
186
285
186
306
189
321
224
260
210
333
186
327
189
290
208
377
245
299
189
293
173
321
265
245
311
167
177
430
198
286
250
252
276
219
307
182
270
176
327
209
329
191
298
194
291
243
244
232
260
250
272
259
245
224
236
235
254
278
278
234
267
195
324
179
159
177
421
226
392
193
317
232
231
257
275
271
234
236
238
188
264
193
302
224
266
222
277
235
233
194
237
199
280
211
188
347
202
238
230
248
215
283
190
277
231
229
200
263
193
244
234
259
217
168
332
223
216
184
265
201
291
245
221
190
270
234
210
186
268
249
234
210
272
183
267
206
221
209
292
206
277
228
230
178
235
188
285
248
227
220
285
195
263
204
206
199
251
203
307
234
224
212
222
237
222
214
243
205
279
180
262
240
219
223
206
230
239
283
243
220
217
219
187
254
231
271
205
259
204
277
241
236
188
254
191
290
230
286
228
225
176
268
201
319
272
234
213
252
191
276
194
291
241
252
245
274
199
259
173
289
240
260
272
243
236
224
244
249
245
231
254
260
173
319
205
287
206
258
229
307
213
320
181
295
174
300
204
342
262
247
263
254
218
229
232
247
239
263
269
234
233
217
239
262
262
264
255
249
229
243
251
239
244
217
292
292
247
264
236
215
251
267
273
282
257
244
258
208
308
208
286
235
267
270
254
229
221
207
268
254
278
194
278
183
275
189
303
187
324
254
262
224
275
182
264
182
294
210
334
227
261
176
273
196
157
402
189
301
240
235
234
234
220
229
220
268
235
283
184
254
224
213
200
273
216
285
225
222
236
236
222
222
224
235
243
246
220
258
193
233
209
232
237
278
248
215
214
217
214
219
236
214
230
223
206
276
221
223
177
225
216
212
221
254
226
216
187
209
217
230
199
237
215
217
213
212
212
219
201
205
196
211
235
244
219
219
195
190
201
191
212
228
229
230
211
204
218
227
204
213
192
208
228
214
233
229
210
206
194
194
215
238
228
242
208
209
222
193
214
216
203
228
218
223
241
240
213
217
197
196
217
213
239
253
234
225
200
204
222
222
222
227
223
216
222
224
215
223
204
212
199
230
233
276
222
214
211
209
175
245
235
235
231
221
226
232
228
214
209
210
217
223
242
233
245
212
218
201
221
249
210
264
192
260
227
213
222
239
193
267
227
253
225
275
209
212
179
270
221
244
264
236
209
222
190
278
222
237
230
246
251
224
245
237
208
238
190
266
224
318
210
272
224
231
220
243
267
251
253
193
175
349
183
284
222
229
245
186
313
213
248
213
217
249
257
255
248
224
250
194
262
191
285
191
285
206
324
188
286
184
255
192
291
205
307
191
286
177
276
199
285
204
265
209
273
200
285
193
271
176
293
282
274
261
218
224
227
175
298
218
291
203
306
199
316
250
184
277
225
312
208
374
178
295
181
309
276
281
247
234
216
236
206
282
187
152
384
212
320
197
255
167
282
189
298
208
332
188
269
177
299
201
297
185
301
208
282
189
296
180
262
174
328
228
316
189
280
184
264
190
319
205
320
185
310
206
298
187
296
191
330
208
316
204
141
433
192
455
231
332
252
244
250
221
277
270
250
272
292
250
248
238
254
259
295
250
284
380
196
397
192
428
204
406
192
371
216
316
183
365
283
310
191
292
195
309
198
367
202
169
203
195
206
320
197
308
194
329
208
331
190
295
174
327
223
357
200
318
196
307
185
338
198
346
198
371
201
325
178
331
223
340
238
337
192
150
439
205
373
196
199
143
117
319
187
430
197
364
232
333
390
184
355
178
389
228
400
216
323
243
286
191
318
208
168
425
208
302
185
281
206
354
214
316
245
188
281
201
298
192
276
179
375
203
320
175
177
212
414
206
350
196
293
181
323
189
341
197
321
191
303
195
302
187
301
209
373
198
172
383
177
304
262
279
271
239
259
259
268
188
264
214
151
476
205
390
214
275
223
328
287
218
303
198
284
187
306
211
330
196
334
215
200
369
181
317
202
334
216
329
197
278
187
342
208
177
410
198
302
204
304
177
286
196
329
230
319
190
251
181
325
209
359
197
315
190
169
388
195
281
200
294
200
337
206
294
192
284
208
357
228
305
189
291
185
291
216
300
198
303
213
292
198
262
187
289
197
321
223
306
194
271
193
299
204
331
201
328
193
272
204
316
192
282
219
355
202
284
190
272
177
309
219
314
209
283
190
297
192
298
194
299
197
299
202
287
189
258
189
329
222
316
183
260
205
285
188
308
191
307
195
313
206
282
166
281
206
268
210
367
187
302
181
320
205
333
200
320
204
295
192
319
190
281
199
389
216
338
174
268
198
154
451
210
354
266
255
270
244
201
288
209
306
207
194
339
187
265
196
316
212
316
188
264
198
254
195
302
200
299
196
296
210
286
192
262
192
290
226
330
193
284
175
264
209
323
222
296
190
290
195
281
195
286
193
302
222
292
205
309
176
324
273
280
289
264
201
264
240
304
208
311
205
282
209
353
188
307
191
184
423
231
344
219
271
180
320
216
293
215
387
202
343
199
281
189
305
218
324
200
280
173
298
204
326
216
278
194
313
188
303
243
217
264
256
279
260
252
187
257
216
291
209
312
199
313
185
321
198
293
188
303
210
275
198
300
182
249
187
321
220
308
194
267
182
267
203
293
205
314
202
146
387
187
290
181
268
205
316
217
308
184
274
183
257
227
361
212
290
201
256
196
297
192
305
193
301
229
298
195
238
186
304
201
326
229
275
185
266
199
180
355
199
296
214
260
190
294
224
231
215
244
279
262
252
214
215
229
192
170
353
198
295
187
271
211
287
192
267
195
293
203
301
209
253
175
258
210
316
209
301
206
277
173
282
205
292
208
294
214
313
195
284
180
259
202
311
216
333
188
275
183
298
203
315
205
301
204
269
198
308
181
288
191
311
230
302
189
253
184
270
202
298
224
297
183
279
210
270
196
265
206
286
188
297
211
261
183
247
196
311
208
312
186
195
290
231
197
289
244
233
236
269
255
236
215
231
245
240
268
273
203
258
181
310
201
187
235
408
184
302
228
263
196
279
180
307
225
321
198
274
180
287
178
327
300
268
248
210
268
274
264
242
262
239
310
200
381
186
313
285
297
277
252
248
205
233
346
249
166
450
183
398
268
160
352
195
366
289
221
297
183
277
204
193
405
194
311
207
264
189
346
183
312
210
360
213
321
171
289
202
350
210
363
245
172
333
213
305
207
322
270
205
375
204
357
183
365
342
309
280
261
270
256
272
302
289
263
262
227
357
199
355
208
392
236
338
217
129
446
237
326
294
254
253
234
247
260
255
213
271
211
339
191
281
222
262
202
320
222
379
173
342
199
362
281
273
288
250
254
259
235
233
212
307
249
427
176
352
178
347
257
314
269
252
271
227
278
273
274
278
288
286
203
348
177
405
218
421
280
183
339
220
352
291
284
273
240
194
389
167
322
199
348
223
309
267
227
249
242
284
272
265
224
350
202
359
181
358
204
404
285
253
220
251
234
263
287
243
284
230
242
265
246
225
349
216
382
199
361
217
302
305
329
299
223
278
201
259
201
410
203
401
287
285
211
276
205
414
199
394
286
176
175
385
226
373
314
265
224
292
206
428
198
387
303
296
259
238
199
342
198
406
207
363
259
280
284
292
279
285
273
267
258
242
247
239
225
307
229
381
181
333
253
238
315
280
184
312
234
285
260
196
151
378
219
331
257
236
212
252
283
272
288
215
278
256
263
265
264
226
354
212
394
192
336
265
275
241
342
219
362
171
361
213
381
286
274
231
301
213
307
201
291
210
395
202
310
182
293
183
324
289
246
265
236
250
261
236
262
271
286
269
230
363
190
356
305
323
304
268
223
293
196
358
204
372
221
331
275
250
232
245
242
292
248
345
189
296
183
361
242
344
269
255
253
258
255
248
249
258
278
283
250
245
221
245
218
304
289
275
225
246
181
363
267
273
270
262
247
256
263
