99
332
229
202
140
268
213
236
155
228
149
117
150
141
133
141
195
205
131
250
139
140
243
304
182
137
223
165
187
215
145
236
170
234
277
233
335
308
163
132
272
158
229
335
238
180
138
240
279
217
329
333
251
261
311
205
160
259
249
229
236
207
342
237
238
275
299
197
140
317
192
195
300
139
237
293
127
132
118
298
155
222
271
307
205
207
270
205
143
134
349
152
207
194
159
128
127
189
135
125
121
129
298
155
113
166
118
130
126
136
118
116
379
134
244
129
304
152
136
128
235
159
118
299
140
233
327
300
148
141
230
153
244
301
310
144
246
234
185
225
163
316
178
266
277
218
311
152
266
240
329
272
159
234
273
213
256
147
137
136
359
131
392
153
143
140
263
153
124
270
131
128
138
149
217
260
122
242
144
232
246
227
126
105
120
274
241
235
132
124
146
199
184
126
144
119
216
130
314
129
410
151
266
153
315
309
222
255
139
348
154
131
156
146
236
234
167
133
127
149
119
136
278
141
288
121
219
124
273
126
203
174
112
247
433
168
206
336
323
128
231
139
130
249
183
329
295
310
132
117
126
225
252
272
307
448
236
185
393
384
198
142
274
178
217
282
249
137
169
253
139
133
340
162
264
258
271
288
259
235
237
236
312
267
264
207
314
195
197
157
244
286
196
214
210
164
235
271
286
184
288
203
143
120
122
221
255
245
212
276
269
267
167
167
249
231
197
173
146
120
164
287
176
148
279
243
250
276
254
229
255
138
235
264
217
254
144
252
228
305
166
267
161
241
200
212
221
258
176
222
163
204
353
156
228
327
272
198
158
149
252
196
286
158
118
299
166
380
157
285
264
133
334
162
350
273
236
134
135
423
127
259
259
227
261
264
274
303
200
185
329
203
160
246
269
251
293
214
130
140
242
217
241
199
321
278
232
292
254
259
251
158
251
222
229
221
203
129
139
143
122
110
208
269
302
302
240
140
117
235
158
357
154
406
238
233
293
134
158
213
208
321
291
356
176
124
318
161
330
138
134
132
244
242
293
220
262
285
154
129
133
132
417
145
360
148
129
249
426
167
236
254
272
260
321
224
255
135
269
148
123
234
187
317
183
401
156
324
237
189
249
150
239
223
233
281
267
188
132
233
269
141
131
111
127
125
267
149
106
147
140
126
108
163
139
352
152
264
145
152
222
130
124
142
272
338
190
321
186
239
137
279
252
251
161
270
265
175
267
269
274
147
154
145
277
272
246
209
134
144
224
142
163
223
275
260
343
276
267
178
245
248
168
247
278
164
132
231
316
138
130
378
158
266
160
135
137
131
240
182
237
331
200
140
380
175
259
229
207
306
145
182
177
235
319
226
289
239
129
131
115
120
246
133
256
399
249
356
249
238
414
273
333
282
322
234
353
293
226
332
220
192
239
236
322
166
106
412
165
215
135
230
179
130
119
225
158
149
238
144
118
268
273
127
264
201
173
229
249
282
318
280
315
285
256
286
219
270
257
178
216
140
258
276
191
222
162
231
154
236
204
130
120
143
130
121
123
149
317
268
241
229
257
143
117
119
307
129
206
142
262
165
232
281
322
207
180
134
262
250
253
340
336
187
205
243
264
287
152
120
261
265
144
132
218
249
147
250
226
391
217
346
266
241
256
156
359
148
234
254
252
257
141
136
313
154
252
339
207
277
145
125
238
147
259
141
148
145
281
220
395
150
254
137
226
332
194
248
239
233
194
140
284
155
215
299
303
365
162
364
319
267
142
175
305
196
180
144
140
133
129
254
145
277
175
229
137
122
284
143
320
171
154
199
297
201
134
155
131
152
330
149
139
240
252
265
265
155
193
300
205
254
244
226
325
254
226
159
262
206
150
245
134
139
249
184
250
146
148
141
137
243
152
169
208
278
180
123
143
227
236
349
147
346
274
251
134
139
132
303
156
128
126
142
308
130
232
269
325
170
302
412
149
273
197
266
173
252
305
283
457
394
184
255
151
119
276
319
236
255
216
143
151
249
134
125
205
382
234
163
219
187
113
282
228
146
145
132
133
203
273
142
264
246
189
207
227
135
129
295
141
238
264
250
139
141
131
240
140
152
203
131
666
205
235
262
259
200
207
270
204
177
172
305
198
211
152
141
196
196
217
220
190
168
247
133
181
272
234
250
232
256
154
240
141
225
170
241
166
146
302
145
261
351
258
231
243
229
170
259
225
142
274
135
134
353
127
384
159
325
196
219
140
122
306
151
278
144
137
261
292
269
240
310
138
244
239
137
140
270
225
142
200
127
150
203
247
231
239
225
165
236
158
222
251
136
273
252
261
241
141
116
150
188
222
158
216
268
174
263
272
136
119
309
144
209
193
200
247
213
194
240
228
422
149
347
243
136
116
161
120
283
191
157
280
133
241
122
244
264
271
147
197
132
250
223
184
106
159
254
133
106
126
137
227
202
320
207
121
151
323
143
254
233
216
157
237
137
128
132
257
141
277
194
251
247
293
132
131
346
284
269
194
208
237
290
201
138
233
288
235
180
201
269
259
135
198
230
133
279
235
133
155
259
315
368
268
263
249
207
127
128
257
183
312
259
222
235
254
164
297
211
159
228
153
203
212
270
137
283
219
147
149
308
251
124
249
145
232
221
233
169
158
190
147
134
183
156
141
207
121
196
248
193
148
133
238
142
203
198
257
230
135
134
264
331
169
254
261
125
112
120
207
240
294
167
238
143
261
141
289
151
95
181
224
125
230
130
283
212
205
145
190
197
167
187
258
152
216
153
137
245
310
126
99
178
212
153
215
208
269
223
248
138
254
196
215
193
157
120
140
178
270
245
231
220
262
126
90
127
131
240
127
259
209
263
149
307
255
126
113
124
224
203
174
223
195
201
120
131
176
270
125
127
234
139
215
301
274
133
125
112
120
254
174
247
127
234
259
218
200
239
127
111
122
151
122
288
133
200
189
215
166
193
207
221
215
139
111
134
227
238
130
138
280
144
113
191
175
225
273
232
295
185
250
136
116
126
221
232
173
135
150
165
245
169
222
155
117
135
242
224
267
262
146
128
179
177
133
130
204
146
204
244
117
131
208
122
126
227
335
131
123
233
169
267
219
106
288
158
198
288
145
236
176
169
326
132
259
306
212
179
319
174
123
106
145
274
129
199
120
210
126
138
337
137
246
214
266
147
188
252
180
140
125
124
282
147
109
136
215
210
262
256
238
148
121
118
247
245
168
158
211
292
156
222
264
207
165
221
143
128
119
148
253
144
141
222
151
364
140
214
215
119
171
199
269
204
141
184
133
224
355
249
287
340
241
176
268
133
320
235
429
170
230
320
336
367
159
134
125
232
261
304
246
234
287
206
209
192
194
273
137
112
136
132
203
282
223
157
132
113
124
184
256
238
156
213
211
123
114
123
217
123
245
227
145
260
245
129
147
172
243
192
148
136
103
216
220
222
145
259
240
122
356
133
313
201
245
225
145
131
137
141
138
318
142
192
180
166
173
143
116
260
263
166
134
207
239
244
146
300
252
152
196
124
260
217
235
232
154
146
220
199
311
244
253
157
243
281
134
130
345
235
278
248
193
181
180
131
214
224
283
140
119
145
128
208
299
145
120
261
266
270
153
267
258
163
172
255
186
128
233
157
218
258
291
221
268
347
220
199
263
366
242
303
136
128
138
114
217
150
291
342
284
298
290
215
229
155
236
197
302
274
216
141
125
139
227
166
228
359
290
186
299
275
343
213
151
123
130
140
285
157
225
126
280
199
218
231
287
232
307
225
144
110
244
144
211
241
362
301
195
337
312
300
199
273
309
283
251
256
314
273
228
133
306
151
127
267
269
374
428
140
466
230
143
135
332
159
320
251
386
239
136
336
292
349
224
228
259
168
229
238
128
125
167
148
144
115
128
190
190
153
241
181
278
202
339
158
336
232
210
356
283
127
138
163
243
170
175
156
342
132
251
257
234
215
264
227
131
216
146
241
183
241
210
155
134
229
133
362
151
171
170
363
140
185
137
136
365
125
407
173
222
263
241
334
249
319
270
126
220
265
236
378
161
137
237
228
248
129
247
254
251
149
429
150
275
252
222
153
286
304
320
408
185
133
230
138
350
142
292
306
148
137
223
383
149
240
265
277
148
139
128
153
249
125
328
140
297
330
375
389
258
222
131
127
374
160
384
319
343
188
190
125
263
238
270
147
313
173
234
234
139
192
278
206
260
342
240
134
114
252
293
139
115
251
316
325
342
174
299
244
291
273
283
171
291
193
190
189
132
194
303
243
279
215
387
325
193
131
145
221
133
135
134
272
252
227
145
269
140
124
115
147
187
151
367
141
316
265
227
232
307
306
221
188
207
133
119
119
141
115
261
136
159
122
268
154
345
158
218
236
292
271
387
272
145
317
143
110
124
289
140
509
159
220
135
131
114
135
341
136
205
197
131
162
257
133
129
228
305
173
443
146
342
156
268
188
249
229
127
269
205
223
310
174
129
312
255
254
255
129
223
232
312
147
283
359
267
239
159
187
298
373
197
214
134
119
154
273
179
308
267
248
215
220
148
127
145
132
162
194
277
290
244
189
317
273
150
310
216
146
127
267
151
336
300
260
134
138
133
223
265
187
213
169
209
243
281
195
226
271
215
265
346
153
131
222
239
132
120
162
133
135
140
265
143
224
249
186
137
334
130
252
254
308
238
217
313
305
273
195
287
337
292
305
142
142
347
143
167
172
260
416
419
295
298
266
254
263
186
144
136
402
154
351
223
350
275
151
303
315
270
263
280
283
150
129
251
165
267
329
246
139
360
149
328
241
235
408
365
194
126
224
231
213
158
285
215
244
131
111
140
237
114
256
224
234
164
124
109
128
142
211
166
206
263
161
221
169
182
151
256
254
301
303
179
149
132
128
156
223
240
139
129
187
442
134
233
205
307
261
251
267
162
345
168
321
315
328
147
193
199
297
148
322
335
273
248
278
254
261
165
291
172
122
145
345
159
349
141
232
353
276
360
274
213
140
217
381
418
247
308
237
236
383
244
129
324
358
293
146
112
381
141
303
380
349
298
281
247
252
137
310
244
303
251
205
150
132
230
187
265
258
197
185
146
215
292
203
136
134
229
122
230
167
284
245
274
147
338
293
227
229
288
261
354
155
369
176
276
181
214
175
224
211
147
284
174
227
264
270
325
255
286
215
269
241
271
154
239
404
299
231
312
220
296
232
289
272
254
336
204
182
274
243
196
246
206
250
268
235
317
170
240
206
167
249
314
300
146
92
255
227
199
271
308
227
207
209
302
239
305
216
176
243
214
214
149
144
167
218
257
214
143
139
271
154
114
116
236
159
217
257
276
143
238
148
105
116
336
133
267
145
255
212
135
264
152
140
253
163
176
223
133
132
269
232
288
136
257
150
130
195
267
252
169
253
213
298
319
141
131
260
290
330
156
276
146
244
195
222
136
126
270
154
194
219
217
248
166
158
132
236
294
260
184
222
248
129
323
142
132
264
161
330
262
255
294
317
252
150
309
166
100
251
305
194
201
144
113
254
280
332
401
249
409
350
181
268
327
235
140
212
295
241
148
143
131
234
230
369
208
225
246
195
321
296
424
308
141
306
324
199
173
239
240
267
292
268
309
236
154
298
156
185
229
335
231
132
97
121
227
167
294
175
390
155
126
245
176
154
217
276
287
298
291
165
246
238
301
234
226
277
229
152
254
261
296
253
151
140
116
217
161
291
177
157
239
155
375
151
443
422
181
228
222
126
113
184
257
236
231
261
286
163
315
223
254
249
139
187
168
271
260
217
122
215
141
228
233
205
256
233
298
284
278
193
237
194
244
238
208
238
227
253
136
108
136
215
140
477
150
358
237
233
258
135
270
209
177
342
315
212
145
254
178
147
292
193
289
146
252
210
360
178
166
210
203
250
290
309
160
280
174
365
202
135
124
242
279
151
383
151
313
434
317
266
143
221
306
140
194
301
363
205
198
234
280
238
134
123
302
239
222
144
252
267
394
163
155
235
241
300
158
239
208
295
139
214
226
127
105
123
119
125
123
122
140
120
157
131
119
149
138
233
308
146
130
387
232
144
253
151
115
191
260
227
310
190
206
148
227
287
306
302
212
233
150
343
174
309
159
288
224
390
226
249
296
207
150
265
255
214
333
239
325
150
127
139
226
317
168
263
259
277
274
287
295
204
215
290
214
141
257
281
244
314
281
248
250
255
237
285
343
150
134
227
143
220
261
170
274
178
227
290
244
237
139
117
236
135
317
294
161
250
282
185
232
128
211
213
268
311
159
121
130
127
251
143
105
249
129
264
266
336
318
335
186
149
202
236
194
133
198
170
319
281
137
189
193
246
274
267
225
262
324
326
335
146
97
123
130
207
244
292
253
134
221
280
155
283
311
280
359
410
276
229
253
276
302
170
269
230
389
221
290
235
278
335
321
229
243
132
135
241
157
143
224
139
132
224
407
278
524
253
279
143
186
122
241
227
214
206
219
134
117
138
135
256
149
267
300
220
314
254
147
349
334
151
340
342
195
245
159
267
323
309
212
257
152
145
138
123
230
284
270
230
231
230
233
274
225
146
113
216
282
251
146
156
280
183
249
314
206
284
151
301
201
141
115
223
268
375
379
269
236
134
227
249
263
286
270
149
302
191
150
332
237
157
118
258
201
203
267
248
208
299
323
314
249
236
151
141
126
263
147
215
156
193
172
224
277
152
155
254
154
248
261
299
243
375
243
371
346
220
211
329
