229
237
240
238
244
242
241
231
243
248
243
237
240
241
240
246
244
240
237
245
253
243
241
240
241
242
247
240
238
237
243
238
239
233
239
234
245
241
235
236
240
246
241
237
235
234
235
241
247
233
237
238
247
239
242
239
244
239
245
250
243
239
244
248
246
237
241
239
241
245
245
238
236
242
246
243
238
239
239
242
249
238
243
237
246
245
244
239
243
240
252
249
244
239
243
248
243
238
240
239
236
243
246
235
236
240
245
237
239
237
241
239
242
241
238
240
245
249
240
234
237
242
242
241
240
238
242
245
247
244
236
237
238
243
244
240
240
233
241
242
239
234
235
236
242
244
240
239
236
242
242
240
234
235
237
240
242
234
239
232
242
237
239
233
233
236
242
239
237
236
235
238
238
240
230
230
235
237
239
234
237
233
241
242
242
235
241
239
246
246
239
241
241
246
241
240
239
238
239
240
245
237
241
243
250
237
239
237
245
238
245
238
241
234
242
244
240
234
237
240
245
247
244
241
235
240
248
240
234
233
239
239
242
239
241
237
245
244
243
239
242
238
244
242
237
237
238
240
239
235
234
236
236
242
242
235
238
237
250
240
240
233
236
235
242
242
233
234
240
247
240
239
239
239
240
241
245
235
236
235
245
236
234
231
235
231
239
242
236
233
235
246
240
238
237
235
233
239
245
234
232
233
241
236
238
234
237
236
239
243
235
237
239
248
238
237
237
241
242
244
247
242
237
243
252
242
240
240
243
241
243
245
243
237
244
248
244
237
243
245
247
249
240
241
241
254
244
244
238
237
237
241
248
239
237
243
248
241
239
240
244
238
243
243
245
234
241
244
240
232
168
307
240
239
239
236
231
240
243
236
229
232
241
241
240
237
235
236
244
244
235
231
233
236
236
238
231
236
231
244
240
238
232
233
235
236
238
234
231
226
233
239
230
227
227
234
225
234
231
229
224
229
235
227
225
223
222
220
224
223
220
219
217
224
228
218
217
223
227
221
228
232
225
227
225
234
230
230
135
313
182
125
115
107
125
127
120
113
127
214
233
241
107
123
108
109
107
95
105
112
106
174
220
233
222
225
226
236
229
231
227
233
229
237
238
233
231
121
345
237
231
226
230
230
233
233
231
229
224
233
239
232
228
232
238
233
237
235
234
228
238
238
232
227
231
235
233
236
238
234
231
242
247
236
232
236
239
237
238
237
237
232
237
243
237
235
237
239
241
245
246
242
237
245
248
243
241
240
240
246
250
241
241
247
253
244
241
240
175
310
242
241
235
231
235
241
233
234
233
237
234
243
245
235
234
241
249
238
234
233
238
233
238
238
231
230
235
242
232
233
232
235
229
239
239
235
230
234
242
233
234
234
233
231
238
243
231
234
233
244
233
238
233
235
232
241
243
231
234
235
243
236
233
231
233
233
239
239
231
233
234
243
234
233
231
232
233
235
238
230
232
230
238
233
235
227
233
230
236
235
233
233
229
234
238
233
228
230
231
231
234
232
232
227
235
238
232
229
232
237
234
236
234
233
227
237
237
232
225
230
232
230
232
235
226
227
232
240
228
231
230
231
229
235
239
225
229
229
237
230
233
226
228
227
234
236
231
231
231
237
235
235
229
231
231
234
236
230
232
226
235
236
233
229
231
235
233
237
233
232
228
235
238
233
225
229
231
230
234
235
228
230
235
243
232
234
231
233
233
235
238
228
230
232
237
231
234
230
232
229
237
239
233
233
230
237
235
233
228
225
228
231
233
228
232
224
234
237
230
226
229
233
231
232
233
230
225
234
238
227
227
232
232
233
235
240
230
231
233
240
232
234
227
229
227
234
231
223
225
221
230
229
229
218
222
226
226
228
229
222
220
226
232
223
225
224
223
226
231
235
226
230
231
239
233
234
230
232
230
236
234
229
231
230
237
235
234
229
231
236
240
240
233
237
236
241
239
241
232
233
167
303
241
229
233
229
236
235
239
230
232
233
241
241
237
234
233
239
240
236
232
230
234
235
237
231
232
231
237
238
238
229
232
237
238
241
234
236
234
242
243
237
229
232
236
240
239
232
236
233
241
242
238
229
233
238
238
239
231
236
229
238
239
236
227
232
234
235
236
236
235
231
234
243
232
231
230
236
231
236
236
238
231
236
240
234
234
237
242
234
238
239
238
233
237
242
234
230
232
237
231
235
236
233
231
233
244
233
231
226
234
227
235
232
228
225
231
236
232
228
227
229
228
236
236
229
173
286
239
230
233
230
228
228
233
240
229
233
231
241
236
237
233
235
234
134
345
237
234
235
237
234
233
234
234
236
240
243
239
242
243
251
241
243
239
244
236
243
242
236
235
237
244
238
237
238
242
238
242
243
239
235
239
247
237
236
235
241
234
241
238
239
234
242
245
239
235
239
240
241
241
240
240
235
241
244
239
236
236
240
243
244
238
239
237
242
244
242
234
235
237
244
246
239
239
237
245
245
241
234
237
237
243
245
238
236
237
246
239
240
234
237
235
241
245
235
234
240
249
241
241
240
244
239
242
245
238
234
241
249
241
236
236
242
246
244
239
238
237
246
244
240
233
234
236
241
241
236
235
237
245
242
242
238
238
236
244
246
237
235
235
247
237
238
234
236
234
240
241
236
232
238
245
235
233
234
240
236
240
237
238
230
239
241
233
226
233
236
234
236
237
230
229
233
241
231
231
228
235
228
234
234
229
227
227
236
232
233
223
228
227
234
232
230
230
228
234
236
232
225
225
231
231
232
229
229
226
233
237
230
227
231
234
231
231
235
227
228
228
234
225
226
228
224
224
227
232
228
228
226
230
237
231
224
229
233
231
230
231
232
225
231
235
231
227
235
237
233
239
240
235
233
235
202
274
242
228
234
237
236
237
231
238
237
244
236
240
238
244
238
237
245
239
233
236
247
240
228
231
237
244
239
236
233
239
247
245
240
226
241
239
244
239
230
242
235
242
238
245
233
236
235
247
246
238
236
242
248
236
240
238
240
235
239
247
239
235
240
251
241
235
235
248
245
241
239
237
241
241
244
238
238
238
242
245
240
242
242
239
246
246
251
239
241
241
253
252
245
239
250
255
249
239
241
250
247
249
247
247
244
252
251
247
247
245
243
245
255
241
243
237
255
247
249
240
246
243
245
246
240
244
248
253
245
236
237
240
246
242
242
246
234
246
245
240
235
237
241
242
239
231
241
229
241
236
240
230
231
151
322
182
120
173
233
235
241
237
247
232
235
236
242
244
236
241
237
248
239
244
241
250
239
244
244
244
239
248
248
239
228
242
245
241
240
235
244
235
246
249
247
236
237
234
247
246
236
234
231
248
238
238
232
233
241
246
245
237
239
238
242
244
243
198
276
234
245
243
234
232
237
249
242
235
238
242
238
242
243
236
232
237
245
238
233
230
239
233
240
239
234
232
238
251
236
235
233
246
234
239
233
238
226
243
241
236
228
233
242
234
237
239
238
229
234
242
231
238
234
235
232
239
246
239
231
240
253
243
236
238
244
248
245
242
242
244
250
248
241
243
246
247
246
251
248
245
246
258
245
246
245
249
242
251
247
247
239
249
256
251
242
249
249
254
257
246
244
255
260
246
243
247
249
247
248
246
244
241
251
248
248
241
245
245
247
248
243
237
249
252
243
237
245
247
248
252
243
249
247
256
250
250
246
251
247
254
254
252
242
257
255
254
246
247
249
253
258
250
243
250
258
251
248
246
252
251
257
252
250
248
261
255
255
248
255
253
257
256
252
246
260
258
251
247
249
253
253
256
248
246
255
260
250
242
250
252
253
252
248
249
247
257
251
249
248
252
246
253
258
252
246
254
258
254
248
248
249
253
258
252
245
255
260
252
247
253
254
257
258
251
250
253
262
254
248
250
253
254
257
254
252
248
267
261
258
249
256
254
259
254
251
249
262
259
257
252
256
255
261
260
256
251
259
261
253
251
250
246
254
255
252
248
255
259
256
247
253
250
257
261
251
249
258
259
254
242
251
253
256
261
252
254
255
269
255
254
251
259
255
262
252
252
250
263
255
254
253
256
257
262
261
258
251
263
257
254
253
251
251
260
255
253
251
261
257
258
252
258
252
260
256
256
249
258
260
254
252
253
254
146
367
182
307
260
266
256
249
251
252
257
258
252
252
254
266
257
252
257
259
260
262
259
257
257
264
259
252
253
259
253
259
253
256
255
263
256
255
255
261
256
259
258
255
256
266
259
255
254
260
259
263
254
253
254
268
256
254
254
259
259
264
256
257
255
270
256
257
256
256
256
266
265
263
262
270
262
261
260
263
264
266
260
260
264
272
262
255
261
265
266
269
261
257
265
266
261
253
259
259
260
266
255
258
262
272
263
263
263
262
268
268
265
256
270
267
268
259
267
261
269
266
266
262
270
264
258
261
261
257
263
256
260
259
267
261
259
262
269
263
267
261
263
261
267
260
254
258
261
261
263
260
257
260
270
258
255
252
262
261
261
256
254
254
267
253
255
255
261
259
259
259
255
257
261
260
253
255
258
254
131
374
257
255
262
257
256
254
263
254
262
256
258
253
267
257
256
252
151
358
261
258
253
255
263
258
254
253
255
253
259
256
256
250
263
259
261
255
262
259
268
263
263
259
268
264
259
257
261
260
261
260
133
377
269
259
253
257
260
259
264
257
258
256
269
258
255
258
260
261
263
259
257
256
269
263
257
255
259
260
264
257
256
254
267
257
259
254
261
260
261
260
257
258
268
260
258
263
265
266
268
266
267
269
273
267
265
267
268
269
275
269
264
271
271
265
260
266
264
266
268
265
261
270
267
261
261
263
259
265
259
259
254
266
257
259
254
177
338
145
378
261
254
264
257
257
251
257
253
261
259
258
259
268
263
263
264
265
265
271
263
261
262
271
263
254
260
259
264
267
262
257
268
273
140
392
264
266
264
275
142
338
193
135
112
97
97
106
113
103
107
97
173
251
236
256
239
248
231
274
285
258
281
260
184
104
285
192
304
237
191
113
252
258
263
265
268
266
266
262
133
404
262
258
265
262
265
260
259
260
272
264
255
260
261
264
261
256
256
256
268
259
255
260
264
265
269
261
266
266
275
266
257
262
261
264
268
259
257
266
270
265
254
261
266
265
271
258
258
266
268
263
256
266
261
272
268
270
260
273
275
267
269
267
268
274
269
267
266
278
271
264
269
267
268
278
266
265
269
267
264
258
262
257
263
260
260
260
267
265
264
264
270
267
271
265
267
262
275
263
260
258
263
263
269
259
259
264
270
266
256
262
263
267
268
263
257
269
267
265
259
265
266
269
270
267
263
274
269
269
264
271
264
269
264
265
260
273
266
257
263
262
269
269
261
261
266
273
264
259
261
265
265
269
264
259
270
272
268
261
268
262
270
269
263
260
268
263
262
261
263
263
264
265
264
262
269
262
262
258
266
259
265
258
260
259
268
261
256
261
264
265
266
261
260
262
271
264
258
261
262
265
271
262
261
269
274
271
262
265
263
267
267
263
256
269
262
262
259
263
265
265
267
265
267
276
267
263
166
365
266
270
260
262
264
274
265
260
267
264
274
269
266
261
271
269
263
258
262
264
267
265
266
263
275
266
267
265
271
269
272
263
262
264
272
266
258
267
263
269
137
393
260
155
375
262
256
257
258
261
176
343
257
265
267
262
256
260
259
267
266
261
255
266
267
263
258
259
260
264
266
263
256
267
265
265
260
259
259
267
140
386
255
267
260
260
256
263
263
263
266
265
266
270
267
262
263
269
264
268
261
264
265
272
267
262
267
265
272
273
267
260
271
271
268
259
265
262
266
265
262
261
273
261
263
259
266
266
266
262
263
264
272
259
259
262
263
266
265
262
260
268
269
263
258
264
261
265
265
259
258
265
268
260
256
262
263
271
264
266
262
273
264
263
258
263
261
265
260
258
260
271
267
263
265
268
272
269
268
264
268
275
265
259
263
264
270
267
266
264
274
273
266
262
268
266
267
265
262
263
272
264
262
262
265
266
270
261
