46
163
274
214
156
328
197
201
281
198
184
316
189
183
271
210
195
280
211
165
303
201
178
252
218
154
331
206
199
275
197
165
228
180
198
203
201
196
170
215
195
195
165
207
178
177
175
211
198
190
172
196
182
182
169
202
171
191
167
218
198
209
214
205
193
194
187
177
196
205
198
170
226
191
182
213
197
203
202
208
181
255
222
189
224
203
200
201
194
196
213
208
203
162
241
205
187
194
186
186
162
268
211
172
255
201
168
220
200
191
153
246
206
184
255
207
196
216
203
190
168
292
205
171
282
203
158
247
200
181
221
193
202
279
235
212
169
301
191
165
293
207
174
234
202
204
206
209
199
163
302
185
191
263
211
163
241
199
203
207
204
187
205
215
219
167
282
206
161
249
202
161
248
209
183
223
204
198
166
229
195
191
181
199
226
168
330
186
172
294
195
169
240
217
176
327
209
180
336
181
177
311
186
192
287
212
159
305
196
179
288
186
166
278
213
169
306
202
170
257
206
150
279
208
168
281
199
164
259
202
159
243
204
175
268
219
173
243
209
182
276
195
159
331
197
187
317
194
181
248
210
140
296
214
181
264
199
167
257
204
171
230
219
190
296
230
153
314
188
174
304
190
178
253
218
162
297
214
164
269
198
147
282
210
169
266
203
167
244
208
188
246
214
166
312
224
160
268
204
163
248
198
188
230
211
206
165
292
199
163
233
185
186
197
201
201
170
203
184
192
163
229
187
184
202
209
210
167
260
211
157
270
195
150
268
211
163
278
202
161
265
201
157
258
192
168
269
214
165
243
202
161
252
201
146
255
208
167
241
197
200
208
195
194
196
190
203
171
276
209
156
264
202
161
232
182
193
203
220
206
171
292
195
156
243
198
175
210
202
199
165
220
184
196
161
212
182
176
162
233
206
198
198
192
201
158
261
198
154
235
205
204
206
209
207
159
293
185
156
263
206
171
242
201
179
227
215
195
242
196
157
277
215
163
257
203
168
222
202
204
214
210
212
180
277
204
158
263
195
152
229
206
188
219
196
196
166
262
199
159
235
203
182
237
216
209
165
301
188
161
291
194
180
271
204
159
243
206
175
229
199
169
236
219
190
271
204
158
260
207
161
249
201
174
230
200
203
165
272
200
155
245
208
194
231
209
203
165
305
193
160
261
193
161
247
211
211
212
217
194
171
286
188
173
314
211
165
250
212
164
238
200
165
265
220
164
284
205
160
257
206
172
224
201
188
255
212
197
239
213
182
229
197
209
224
229
218
217
216
216
221
218
159
252
216
197
243
204
198
202
202
198
158
259
214
164
261
203
186
210
188
186
160
212
189
194
177
232
195
194
162
237
201
191
195
180
197
171
228
205
197
164
225
191
183
189
189
188
194
193
193
193
161
209
182
188
162
200
189
205
173
242
199
183
190
189
185
181
190
182
188
172
206
194
194
169
204
172
179
174
167
178
181
191
186
197
190
210
195
187
184
180
181
193
201
173
259
214
172
243
204
187
256
212
186
287
231
154
324
174
289
200
192
171
293
216
185
234
213
199
165
282
161
272
211
217
171
274
169
244
199
199
161
264
223
220
163
304
222
153
296
199
147
276
213
214
175
280
209
184
237
221
198
176
321
215
166
295
217
154
257
193
181
261
219
209
189
345
187
277
222
200
178
330
215
195
283
210
154
291
198
161
331
209
189
294
222
166
277
202
147
283
231
164
323
215
151
302
217
148
291
213
164
333
210
176
307
204
155
305
220
172
312
215
160
285
211
155
299
203
167
332
221
170
282
207
159
277
196
165
253
210
209
220
233
205
198
321
186
183
374
206
190
319
199
181
323
182
184
341
201
201
329
196
181
312
193
179
324
205
181
324
198
188
321
181
192
305
224
172
286
206
165
312
194
172
328
199
191
307
213
165
293
191
168
325
205
188
332
190
180
296
197
166
303
201
185
355
199
175
333
187
176
354
196
185
361
191
180
329
190
169
303
203
193
335
193
174
306
194
165
304
198
177
346
209
172
303
192
178
267
201
165
344
204
166
333
200
169
305
184
174
289
226
159
298
205
163
324
195
159
322
204
172
308
203
175
312
189
169
305
209
172
285
206
163
239
199
185
193
182
205
173
339
197
174
330
188
167
278
209
164
326
200
178
341
189
162
323
185
173
318
218
169
280
206
156
304
191
164
313
209
180
289
215
155
292
195
160
331
204
181
306
201
167
292
205
162
268
213
170
309
212
156
322
193
181
279
209
164
305
216
173
298
207
161
282
193
164
318
217
172
285
212
165
302
194
156
302
208
189
283
211
156
266
205
163
286
218
164
299
210
156
293
205
152
272
209
173
298
218
155
273
207
152
279
198
159
277
212
167
266
209
166
269
203
159
279
209
174
277
201
246
286
188
160
310
197
179
251
198
194
189
187
181
184
189
178
195
198
210
218
206
176
280
201
163
248
210
177
268
212
188
224
210
209
160
281
203
191
234
214
206
198
201
204
161
257
208
178
276
222
162
307
217
156
262
200
155
256
223
197
278
212
161
325
196
163
290
208
176
281
214
169
273
208
149
277
214
169
292
210
165
258
210
158
273
199
154
304
216
181
281
203
155
288
200
155
300
213
172
283
214
164
281
195
163
265
206
170
274
211
163
260
211
164
263
193
158
270
217
167
313
202
168
273
205
150
272
216
164
301
205
162
308
195
165
272
213
177
309
219
162
288
207
158
284
203
161
312
223
173
314
201
179
274
202
158
333
209
189
300
218
170
275
208
143
304
223
165
307
213
164
283
214
159
283
221
162
307
212
167
293
211
155
295
209
188
338
196
181
292
207
161
295
222
152
337
213
175
303
207
157
297
208
159
314
225
169
289
224
173
287
202
155
309
230
160
316
204
164
319
200
169
310
209
177
311
212
187
281
204
163
278
218
169
291
217
155
316
197
177
277
215
157
311
224
175
289
209
160
279
210
157
328
200
181
325
196
174
277
198
156
293
226
163
322
194
177
313
191
156
292
222
165
291
220
155
284
203
172
283
220
164
290
218
155
278
217
148
296
193
183
340
204
171
277
209
151
279
209
156
315
204
183
298
213
163
263
205
145
292
222
167
282
209
155
301
201
176
268
215
165
292
220
155
288
202
173
274
210
169
291
216
160
291
213
161
296
200
160
316
222
162
282
210
161
287
208
155
274
213
172
271
213
163
298
211
158
284
218
170
292
215
155
320
209
163
265
211
164
318
216
180
317
194
180
297
204
158
307
225
161
313
222
160
286
201
156
322
221
167
303
213
165
294
210
146
287
219
173
305
213
159
265
209
158
255
229
189
277
217
178
332
209
159
312
204
177
258
209
195
192
194
204
211
200
201
221
155
310
218
161
241
195
189
167
255
220
213
208
207
209
165
232
197
192
173
220
218
238
164
325
198
175
282
208
165
249
214
213
175
308
215
167
261
207
161
272
223
204
255
213
214
166
288
208
147
287
224
167
298
218
184
233
219
205
271
242
215
230
307
205
191
325
195
170
310
227
181
286
219
162
208
350
184
260
228
218
201
324
200
260
224
195
202
337
207
189
334
204
262
217
203
169
307
227
169
362
197
278
223
218
168
275
224
182
252
212
206
168
247
203
216
254
241
212
192
339
194
179
338
187
178
297
233
167
310
200
177
334
187
197
342
202
191
341
196
265
229
192
281
254
218
290
238
211
284
210
162
360
203
216
277
224
210
174
306
193
206
374
199
294
230
226
235
229
183
322
234
170
352
196
185
271
208
164
307
211
199
323
205
244
227
196
273
238
210
294
242
196
274
232
199
233
203
214
201
259
239
189
311
227
168
175
168
225
235
170
203
150
234
227
173
315
189
196
341
210
245
221
216
171
326
189
194
306
217
234
248
218
201
273
219
209
292
247
204
290
251
196
274
214
203
270
242
215
260
237
196
303
220
176
165
177
232
227
165
231
160
212
216
166
301
221
188
304
209
185
221
203
207
185
273
240
189
354
196
257
222
216
197
281
242
208
291
253
202
305
219
171
185
160
210
250
160
392
206
263
222
198
257
257
207
322
246
166
173
165
229
218
270
245
212
305
245
204
306
230
174
179
177
265
235
253
234
202
288
231
209
274
249
213
307
233
196
281
224
213
291
245
201
291
241
215
253
227
210
283
238
213
252
231
217
276
228
229
284
246
196
179
356
191
242
211
221
282
244
201
304
235
150
187
163
265
198
346
226
271
236
199
255
223
204
313
245
222
267
243
197
258
219
209
268
245
218
263
223
200
267
213
205
240
238
232
253
236
200
265
219
197
275
237
209
253
232
198
280
233
187
280
239
218
252
231
199
268
223
194
291
235
211
269
230
205
266
216
204
259
245
212
263
231
198
289
232
195
238
225
221
217
217
209
197
196
187
185
185
189
189
185
186
181
177
170
177
171
166
164
159
161
172
181
181
172
171
159
173
171
167
172
177
179
196
199
202
214
198
195
189
178
185
189
179
198
202
206
207
199
188
197
194
184
185
177
193
207
196
198
196
184
186
185
188
194
182
182
197
203
201
199
199
203
204
202
211
181
208
213
213
220
215
172
233
196
201
202
186
203
182
255
212
174
220
190
190
191
186
190
209
217
224
199
238
211
197
209
199
196
216
209
211
213
197
202
175
220
202
184
192
191
201
202
194
200
202
198
193
190
196
205
189
301
193
234
213
200
240
224
200
224
225
219
257
219
198
258
226
189
253
220
205
246
226
207
223
211
204
217
195
199
216
216
218
207
230
219
167
184
262
196
199
204
195
1126
177
189
191
207
215
197
273
219
207
228
198
188
219
223
220
229
215
196
228
202
200
207
222
213
284
247
193
273
204
201
198
202
210
212
199
197
187
197
203
200
193
187
209
229
221
222
223
218
219
213
207
193
200
199
205
210
202
202
196
198
203
193
250
244
196
188
339
212
199
201
202
197
281
207
303
243
159
287
193
224
198
191
263
216
219
216
226
187
158
297
187
198
195
196
200
195
190
191
213
235
196
277
191
233
209
211
229
229
193
286
194
225
211
211
228
230
194
270
214
174
195
268
185
247
231
196
256
200
193
229
211
179
285
213
238
213
202
196
191
181
181
176
170
186
189
199
197
207
193
217
198
194
191
178
198
208
211
210
211
176
262
209
193
239
212
198
290
220
256
216
201
223
206
186
217
243
205
320
203
272
224
197
184
298
188
247
223
199
220
208
203
215
203
207
279
230
204
236
222
200
231
202
189
252
230
219
230
220
200
298
225
197
242
226
203
261
224
205
286
226
182
177
304
223
218
207
209
169
242
200
193
203
203
206
194
232
208
194
203
203
200
176
246
221
207
280
234
225
182
260
200
209
215
212
256
223
213
207
214
216
202
194
207
187
301
206
284
223
200
232
212
211
215
208
213
211
214
215
192
287
194
210
213
221
219
225
215
211
218
198
252
209
204
251
236
203
273
216
202
169
240
192
219
233
216
248
206
208
212
203
187
193
210
206
196
225
217
193
282
219
158
283
204
234
209
203
188
227
215
180
257
199
188
264
221
166
242
206
193
210
231
189
256
239
209
293
227
193
198
259
195
202
205
197
191
192
196
213
229
239
190
286
204
279
238
211
207
197
197
208
210
190
252
218
216
216
216
211
215
202
197
201
209
213
171
267
209
170
235
204
175
228
201
188
261
219
180
278
214
159
287
200
211
209
207
175
270
204
168
243
187
176
201
203
209
189
222
196
205
208
203
199
186
199
216
214
212
204
170
214
185
192
204
199
213
163
283
211
188
209
202
200
222
194
215
203
300
202
249
212
206
206
218
196
282
221
216
225
228
206
226
196
192
167
239
225
216
209
199
210
216
230
217
188
235
242
213
267
209
221
234
233
212
221
232
210
293
232
204
278
218
194
267
250
204
277
241
201
272
232
197
260
225
208
300
226
202
272
232
191
264
248
202
296
249
207
295
226
194
276
230
209
295
242
195
271
245
192
302
218
285
251
204
275
238
192
272
227
202
295
232
208
295
231
197
182
334
199
288
237
201
273
227
195
293
233
191
185
155
256
242
164
188
158
244
199
280
260
206
331
216
178
350
189
284
234
218
287
253
194
302
213
195
372
192
317
242
149
357
191
269
216
215
239
254
202
334
206
289
244
170
172
159
249
216
311
239
164
182
171
245
186
311
254
146
372
200
276
218
196
234
224
218
290
233
199
282
244
195
268
233
210
293
235
209
259
242
193
271
227
223
214
222
222
230
219
218
221
214
208
320
247
152
347
198
301
220
164
332
197
315
238
155
333
186
275
225
211
228
331
187
307
219
190
373
254
258
266
153
177
178
276
195
337
204
318
222
192
385
199
196
332
186
274
242
205
289
231
174
184
165
241
183
309
224
341
215
184
378
186
334
222
273
268
202
301
233
164
175
154
228
215
337
229
161
370
194
306
219
149
361
199
302
236
189
219
292
186
295
238
178
191
368
201
159
337
181
255
247
213
269
237
197
305
208
181
349
199
312
228
177
330
189
266
207
231
223
314
212
179
363
190
314
202
191
355
203
291
222
195
186
322
181
283
236
220
221
317
195
268
225
191
202
367
198
278
239
195
217
304
186
319
222
271
237
205
275
231
198
190
369
201
290
236
169
180
158
210
210
217
291
242
213
278
238
200
286
225
196
276
235
224
222
234
200
272
224
204
318
228
168
353
189
298
214
159
312
205
293
231
