189
236
234
230
224
223
217
220
226
237
240
229
229
230
225
229
226
216
232
236
239
242
237
233
222
226
218
230
245
244
241
235
230
232
237
222
231
234
240
237
227
236
239
232
236
226
244
256
253
242
235
237
236
226
229
248
241
241
232
233
234
226
226
210
227
241
236
228
238
228
226
218
220
235
235
237
230
228
227
220
226
225
175
256
235
234
234
227
224
222
216
215
221
234
245
247
230
229
221
226
227
211
228
228
211
248
224
230
225
217
183
240
232
239
236
228
220
225
222
215
209
223
233
233
227
224
229
226
217
210
215
224
234
234
231
232
229
228
223
223
243
245
243
240
232
233
227
200
250
219
232
235
241
235
226
224
219
169
237
234
236
239
225
231
222
222
227
218
214
222
232
235
222
225
228
219
219
207
223
235
235
233
223
224
219
175
258
222
240
244
227
245
235
235
224
222
211
224
229
235
234
229
222
220
220
223
219
229
240
230
230
229
229
227
227
214
228
229
236
241
228
229
221
225
224
212
238
245
238
235
226
227
225
179
240
220
224
226
227
225
228
228
219
220
209
230
240
231
168
240
229
221
216
212
224
230
233
232
229
226
230
222
220
211
224
236
237
238
235
225
224
223
230
230
240
245
241
236
238
238
236
234
218
234
236
238
243
229
227
219
222
217
227
240
244
230
227
229
230
229
221
218
227
232
189
260
229
232
219
216
208
227
245
243
241
228
234
231
223
229
225
232
239
232
232
232
228
229
218
210
233
236
240
243
231
235
222
225
229
220
235
231
235
233
223
224
222
211
207
215
227
230
226
216
216
212
212
215
206
222
235
227
226
214
218
219
213
211
199
221
228
222
228
221
223
212
201
222
212
231
230
232
217
217
221
214
218
218
213
225
225
226
229
223
215
214
212
203
212
216
225
221
212
209
207
206
205
209
196
211
151
240
217
203
209
204
207
200
192
199
172
243
218
204
204
164
223
196
193
192
202
212
205
208
197
198
202
203
194
194
181
203
207
206
204
201
205
195
196
189
190
189
204
201
204
197
196
192
197
188
193
191
186
196
193
206
205
202
201
195
192
188
192
186
196
204
205
209
193
197
192
191
143
205
191
205
200
200
195
204
192
198
191
192
188
179
140
210
213
213
196
192
191
192
191
188
183
195
205
151
208
205
195
198
198
191
193
183
186
197
205
201
206
198
202
197
196
190
191
203
208
210
206
209
200
205
199
169
232
194
203
208
211
213
214
205
206
192
196
201
194
210
208
215
205
199
196
196
144
237
192
193
196
211
207
203
201
158
235
196
195
186
144
217
215
205
205
149
207
201
198
190
194
193
207
204
174
223
200
203
199
135
228
191
185
203
202
212
209
202
157
226
194
192
191
198
202
209
197
203
194
197
160
224
198
188
195
201
207
210
199
208
204
192
195
159
215
200
208
210
206
204
197
194
195
200
192
148
223
202
204
205
148
214
204
202
191
191
179
194
196
214
199
203
187
166
215
194
193
187
156
235
212
204
202
202
210
197
184
206
189
201
209
207
213
212
202
202
199
201
204
202
213
225
215
218
216
213
157
257
220
204
217
217
226
228
213
217
163
243
213
199
222
225
230
152
133
132
131
136
134
134
134
132
132
130
132
140
141
142
145
137
138
133
220
219
208
202
196
216
228
159
131
217
220
217
215
220
220
220
228
240
241
236
237
228
202
243
213
234
238
238
241
223
225
224
228
225
225
236
227
250
233
235
236
235
225
221
234
248
250
238
234
231
228
227
222
238
246
240
232
230
238
190
270
220
240
241
238
242
231
228
234
226
219
236
250
246
232
229
235
225
227
229
220
237
237
242
238
234
172
263
235
217
230
240
238
236
230
226
183
263
229
225
226
240
236
227
231
228
232
226
217
237
247
246
237
228
226
221
192
240
228
234
228
228
225
236
169
141
205
270
240
241
234
237
227
225
223
217
217
194
256
239
233
230
204
253
231
229
224
179
283
237
242
234
228
223
224
222
220
236
241
241
226
227
226
227
233
224
237
239
240
240
235
234
233
228
215
230
247
244
234
232
231
207
238
225
224
236
238
236
227
232
233
225
222
214
233
216
266
242
239
233
149
129
140
156
198
169
141
145
140
141
142
133
140
132
138
137
135
139
136
127
137
136
137
141
142
141
145
136
139
137
130
132
131
128
130
121
135
138
140
144
140
138
139
132
132
134
134
134
133
130
130
128
133
139
141
138
142
133
137
136
136
139
133
133
133
135
128
126
135
141
144
139
146
190
219
213
219
210
220
223
238
246
246
248
250
237
237
227
216
173
282
244
239
223
226
219
220
220
155
134
142
138
135
140
139
138
138
138
140
137
137
140
134
130
138
139
140
141
136
142
137
132
140
134
136
133
130
133
129
121
135
137
139
144
138
139
141
129
129
131
132
134
133
129
130
122
128
142
134
138
143
135
139
138
138
142
176
196
195
187
200
219
228
244
239
246
254
247
245
247
250
251
247
244
238
227
220
226
218
231
238
174
280
227
223
218
219
215
226
234
226
226
228
219
225
183
250
214
222
233
215
251
221
219
217
169
244
221
238
241
233
228
222
226
224
218
213
223
234
215
250
227
233
218
183
247
218
235
231
193
258
222
229
221
223
214
213
226
221
223
223
222
214
213
213
206
219
225
231
236
223
221
216
222
225
211
227
212
246
231
219
226
223
216
218
209
228
237
236
230
217
220
223
215
212
222
234
230
225
222
228
228
216
219
211
215
243
231
235
227
223
221
213
219
178
262
239
225
225
190
245
223
221
214
165
256
238
239
232
222
225
217
217
213
226
236
235
229
225
224
224
230
222
219
230
239
239
227
229
231
225
201
233
235
241
239
167
146
195
170
134
139
131
135
133
129
142
143
142
145
143
140
139
139
141
144
134
133
134
131
124
133
137
139
136
137
142
137
136
136
131
132
131
128
130
126
200
212
211
206
201
200
201
196
200
198
208
125
271
225
238
239
223
226
214
217
216
206
230
229
226
217
213
209
194
227
207
203
207
214
219
213
209
209
212
201
201
193
214
225
216
153
248
213
207
211
161
230
224
235
241
235
232
241
216
238
224
219
235
232
233
234
228
227
219
225
219
155
212
174
147
146
142
137
139
138
142
134
135
134
128
126
134
135
141
141
145
149
141
133
138
125
127
131
211
241
213
218
222
206
220
209
218
225
171
261
222
237
237
229
230
231
223
210
231
218
236
237
178
273
232
228
215
224
215
228
229
229
230
230
227
220
222
222
212
231
238
241
239
225
230
221
226
226
228
238
237
239
232
232
229
209
247
222
239
248
245
235
232
231
209
260
228
236
241
231
229
218
229
232
222
214
225
231
221
243
230
233
221
175
252
217
232
233
231
222
217
223
217
152
204
160
136
138
141
138
136
139
143
140
142
134
140
137
132
191
250
221
227
223
221
205
211
206
208
212
203
220
221
227
222
218
220
217
219
195
218
216
229
223
238
223
218
220
203
231
217
230
228
178
262
221
225
184
248
213
211
224
233
227
225
227
217
217
214
212
211
241
233
222
219
196
233
219
211
204
214
223
218
220
220
211
212
203
210
204
213
227
232
230
223
221
218
229
227
213
232
186
274
239
235
228
226
221
215
222
180
285
236
226
220
222
222
215
213
215
245
229
228
223
230
225
225
218
217
240
237
238
230
228
225
214
174
244
233
236
231
231
224
224
222
223
222
209
226
233
239
240
226
214
238
223
219
231
186
296
245
238
230
235
240
225
231
239
240
237
203
245
230
222
228
148
274
258
242
185
252
234
233
222
217
237
240
247
239
237
244
198
260
224
231
241
242
243
242
234
233
226
225
226
234
238
230
229
227
217
192
250
215
232
237
246
248
231
238
229
232
227
228
258
255
245
207
261
242
243
223
177
270
251
239
231
234
230
221
220
217
236
242
234
235
225
225
228
228
219
237
239
243
241
241
241
231
221
195
248
235
243
238
199
254
227
225
228
207
243
237
237
231
226
231
222
223
210
220
227
238
239
226
224
221
219
221
214
232
239
229
229
218
224
222
214
217
205
224
232
229
232
223
222
222
214
219
232
238
238
228
226
225
223
225
200
235
232
234
231
227
235
229
226
218
213
229
233
235
236
220
222
213
221
223
209
224
226
230
230
219
228
225
167
241
217
230
238
238
231
224
223
220
221
215
229
241
235
233
225
229
227
217
219
210
224
232
228
234
227
221
212
223
213
252
245
240
227
223
232
223
223
221
214
201
247
232
232
222
160
255
220
213
214
226
236
235
224
224
218
220
222
211
225
225
235
237
223
232
229
227
222
213
233
243
239
234
222
179
259
224
218
201
257
237
235
228
203
261
225
220
216
231
235
233
230
207
239
219
219
216
228
231
237
231
224
231
228
227
228
203
247
233
239
241
225
227
223
223
216
227
241
244
233
227
228
230
174
255
225
228
231
237
231
227
227
219
166
248
231
241
236
233
220
228
225
218
224
224
232
238
237
237
236
228
230
219
216
232
235
242
238
227
230
219
223
168
255
236
233
237
234
225
232
214
239
215
227
177
273
249
231
226
223
221
222
222
219
255
237
231
193
260
233
221
213
228
231
234
234
227
232
219
223
217
217
238
236
239
174
250
236
222
226
220
230
236
229
239
234
228
224
206
234
219
231
214
263
233
234
226
226
227
219
234
232
223
253
225
233
229
230
220
222
237
186
280
233
226
222
220
216
218
230
178
273
238
224
228
230
221
218
212
229
239
230
224
236
218
218
213
213
232
228
236
227
224
229
220
191
250
214
230
231
231
234
226
224
215
218
211
219
231
235
233
225
222
220
225
223
211
192
257
230
232
225
227
225
219
219
213
231
241
234
231
221
225
220
226
214
233
233
233
229
229
234
219
221
215
211
232
228
233
231
155
234
222
214
217
216
225
229
228
228
227
225
225
228
213
230
233
245
196
267
238
223
222
226
216
236
242
215
247
222
225
227
221
218
227
239
245
233
176
278
229
226
219
222
240
237
239
224
225
230
222
227
221
235
244
235
239
240
198
252
224
219
233
233
243
244
229
231
225
225
229
220
226
238
233
233
225
195
254
228
217
171
275
248
241
225
228
224
223
219
220
235
237
231
228
226
228
227
223
215
227
239
241
240
232
238
231
226
214
236
244
238
239
228
230
226
224
231
224
234
241
240
240
237
232
224
224
218
230
243
241
241
231
226
206
258
223
233
238
240
239
227
238
232
221
225
216
234
246
242
233
224
228
231
220
217
239
238
235
231
227
232
224
223
212
220
234
234
238
234
224
227
220
223
219
232
235
231
233
227
181
259
227
217
218
175
262
246
237
228
227
225
222
215
235
239
240
238
177
258
237
234
220
172
255
242
239
173
258
241
225
222
216
236
245
237
239
225
223
226
224
219
228
234
241
232
229
232
222
225
218
215
235
236
243
242
228
228
223
228
223
228
240
234
236
231
225
229
228
223
216
230
241
246
237
235
226
229
230
216
217
263
237
237
224
229
230
223
218
222
231
242
234
233
232
225
225
217
216
238
237
238
228
225
226
218
228
215
198
256
236
236
230
233
226
220
220
215
232
240
237
236
224
224
222
205
237
228
235
238
234
225
232
229
229
220
215
235
244
241
235
225
223
214
226
215
227
238
234
231
220
229
230
221
222
216
228
237
238
233
230
223
225
223
219
239
240
240
235
196
258
231
224
226
163
273
243
244
237
228
226
223
221
216
235
240
238
232
228
229
179
256
226
230
237
240
241
235
235
235
228
222
217
244
248
239
235
188
265
230
230
150
216
172
152
149
148
148
154
217
291
233
219
216
234
233
232
232
222
223
215
224
221
230
195
271
241
234
230
231
232
220
180
267
243
244
232
230
221
225
211
226
237
245
238
184
260
232
227
195
242
225
237
243
239
238
235
231
233
223
223
247
243
242
228
230
234
180
260
225
232
169
264
245
233
231
228
222
221
221
218
258
239
234
232
224
223
232
221
234
234
238
238
225
235
233
224
213
227
236
226
251
228
224
224
225
222
221
235
181
282
238
229
234
229
225
211
233
199
261
236
226
165
225
221
213
209
228
227
232
226
215
222
215
216
216
207
225
224
204
252
225
220
212
177
242
211
230
233
229
224
217
217
217
218
207
218
223
227
233
222
226
223
198
235
206
227
238
206
258
223
226
221
214
219
215
227
227
227
226
220
201
239
219
212
208
211
243
231
228
216
218
210
215
213
219
229
226
235
224
221
222
214
217
197
214
216
222
223
213
214
205
204
206
197
210
213
189
242
218
204
209
211
208
209
202
221
224
227
226
158
246
221
218
210
207
223
231
226
192
233
217
214
155
247
216
219
229
219
227
225
184
247
215
219
212
224
236
230
226
216
217
212
215
200
225
223
218
180
249
220
222
222
222
211
217
228
189
268
223
219
214
211
214
201
212
232
221
223
214
170
243
222
218
204
219
226
228
233
224
231
220
154
208
163
143
150
154
213
185
153
149
210
175
142
144
144
142
132
144
153
152
209
294
234
224
196
220
212
209
171
258
247
230
225
224
229
231
198
244
238
240
240
236
236
234
226
226
224
246
253
192
280
243
242
232
235
232
241
195
282
243
244
235
237
229
226
242
252
247
240
167
204
168
141
142
143
143
217
310
243
237
232
232
231
198
246
235
243
248
244
231
234
215
234
219
236
241
241
238
232
234
232
232
230
221
187
282
247
239
238
234
231
229
227
249
250
253
239
207
260
229
232
229
235
243
231
197
266
229
226
160
248
237
235
245
244
231
239
231
178
274
230
247
241
238
239
237
238
240
230
