57
193
221
154
241
215
217
288
232
210
221
259
241
238
259
218
210
167
310
230
214
230
299
239
268
197
264
272
167
209
207
240
227
203
225
273
284
270
207
227
312
263
221
348
251
252
202
120
355
243
253
244
209
130
283
227
185
251
271
254
220
252
218
287
230
229
229
232
251
227
254
239
153
261
262
266
267
203
256
234
230
125
253
200
212
267
240
236
182
355
199
198
194
202
243
273
262
258
308
254
253
248
254
238
269
268
224
198
138
318
257
205
206
265
332
254
214
247
273
233
287
267
249
278
248
248
296
243
235
272
195
273
213
280
235
189
212
253
278
255
267
265
260
249
227
194
270
153
150
322
219
252
253
225
244
232
209
282
264
258
236
233
249
215
275
215
280
275
217
209
240
269
254
265
251
232
240
200
192
238
197
230
204
250
333
239
236
140
304
157
305
158
310
254
193
238
182
263
245
228
243
273
201
219
316
252
227
202
160
319
292
271
252
247
265
198
292
271
284
244
307
249
252
245
299
281
307
229
217
235
310
252
264
251
288
273
256
244
228
253
240
269
211
266
228
335
208
270
239
242
205
198
254
255
254
265
228
232
223
236
268
231
268
239
229
273
250
301
222
247
282
288
231
263
322
198
257
252
241
266
280
243
203
257
258
224
222
225
266
274
245
257
234
256
224
222
207
128
171
333
225
224
208
239
249
281
257
219
122
238
241
205
203
182
295
268
225
238
212
253
198
191
257
238
242
244
245
221
179
310
242
239
255
249
124
317
282
202
258
231
223
292
276
253
213
262
271
250
130
274
204
264
272
264
252
240
261
237
224
206
385
273
276
210
261
245
241
222
217
241
284
299
265
205
222
267
264
241
225
250
302
264
157
253
199
247
126
282
255
264
292
230
341
232
295
264
258
299
225
160
311
246
239
255
246
307
178
226
280
248
254
259
205
233
287
173
247
263
219
200
251
232
242
263
273
248
275
211
234
252
287
299
232
231
237
280
245
207
226
147
292
267
225
209
211
246
213
117
344
183
223
242
243
221
238
251
254
258
228
266
272
232
234
269
228
208
249
211
209
239
311
260
210
197
178
294
267
232
235
130
300
241
233
209
254
347
251
230
317
235
246
229
248
233
178
302
206
227
339
305
253
250
276
247
282
230
243
234
220
221
308
233
241
234
297
271
214
263
253
296
277
240
249
275
247
235
230
260
286
200
249
141
296
215
234
260
260
275
270
327
355
252
258
261
262
271
240
291
295
256
201
291
262
253
274
231
244
208
240
242
329
241
284
248
244
245
227
259
253
265
355
243
250
253
219
296
284
276
253
291
270
275
191
228
252
238
287
276
271
263
247
224
247
210
287
291
232
256
209
219
214
201
208
327
259
270
234
212
234
234
220
323
269
222
266
257
248
211
215
210
161
131
188
119
141
142
265
138
319
233
204
258
289
267
241
223
249
372
241
267
254
286
255
237
240
221
211
213
215
272
240
400
261
267
258
201
242
262
283
258
232
265
224
232
232
273
261
143
285
233
234
255
126
246
225
295
274
266
213
200
234
261
280
216
198
244
250
247
270
302
248
241
267
266
232
264
339
169
249
132
252
262
263
212
236
270
261
212
245
225
250
303
250
343
403
251
267
263
233
302
262
236
199
120
240
182
255
303
280
249
260
255
188
338
226
149
288
253
263
228
285
248
228
201
223
294
294
295
234
213
238
250
264
276
228
268
247
154
339
163
265
298
284
258
246
226
206
239
246
237
257
291
237
283
259
223
292
240
221
248
262
266
285
273
272
240
227
277
286
234
246
218
213
119
331
214
289
242
226
260
262
217
197
254
257
258
272
228
227
247
214
146
298
221
250
238
265
231
262
244
246
227
122
247
236
271
242
122
323
217
227
248
223
270
279
240
211
226
250
264
220
221
224
264
252
254
215
243
204
238
316
273
264
273
277
243
221
249
256
327
249
257
271
256
235
343
247
223
250
293
358
312
276
259
221
259
313
265
230
198
231
305
139
255
241
128
295
214
253
299
200
228
139
253
256
240
252
119
338
215
192
167
231
283
278
280
269
208
257
200
214
161
121
312
253
247
264
240
217
254
264
219
260
256
308
278
244
252
262
293
236
336
212
254
262
229
197
236
256
270
243
209
219
195
252
217
191
146
254
232
226
249
195
194
223
248
260
265
239
262
244
244
194
208
234
357
237
314
293
298
229
235
249
252
315
278
251
236
235
236
228
190
238
237
235
289
269
233
231
250
202
124
327
276
304
261
224
201
288
258
217
298
238
204
254
225
183
283
229
270
330
235
321
259
283
162
268
245
329
264
218
288
236
238
251
245
252
293
246
256
235
244
239
249
242
246
243
225
261
245
218
263
232
313
279
236
208
275
267
221
230
255
234
245
270
230
242
228
242
257
231
211
248
264
247
225
224
254
251
192
224
211
124
256
154
244
264
215
255
274
281
279
248
264
201
233
218
245
341
255
220
253
243
314
257
324
274
216
284
237
276
221
249
246
241
209
247
319
248
234
226
241
234
235
246
230
295
236
128
247
261
261
294
273
237
300
255
221
217
284
257
262
251
209
205
124
134
216
222
256
247
243
225
195
236
197
316
167
245
249
258
245
259
230
233
273
209
260
214
220
282
266
291
296
280
255
219
231
249
273
246
272
265
235
148
179
237
232
237
213
210
109
130
171
128
328
227
234
284
265
249
203
297
304
232
240
280
248
337
258
247
235
259
215
267
237
255
294
264
258
228
235
251
282
262
280
228
230
196
141
231
196
266
215
155
165
293
266
269
264
240
254
256
203
254
256
262
251
268
229
213
242
250
230
330
221
234
242
276
256
224
271
228
206
272
154
231
246
255
263
275
255
250
213
333
221
248
256
237
255
271
254
264
169
259
330
255
230
252
238
229
246
253
225
272
268
287
236
223
258
225
234
284
174
250
129
268
246
261
302
232
248
209
242
215
264
257
249
247
244
258
247
273
289
179
238
288
224
232
311
274
206
261
319
236
246
232
248
216
242
200
313
238
198
252
201
227
222
263
263
227
254
237
233
264
326
266
238
242
216
220
219
199
245
213
228
280
288
231
254
241
213
277
222
297
161
286
220
232
262
250
132
239
236
248
293
249
244
286
202
116
285
258
294
254
283
218
223
242
237
122
380
277
219
124
299
226
219
227
186
262
267
247
195
243
244
329
219
239
222
240
229
253
263
261
236
190
210
535
154
236
254
228
223
191
229
303
208
232
275
215
126
350
155
308
171
267
271
244
211
267
270
207
252
232
306
237
255
254
233
270
240
202
258
239
314
265
218
247
228
240
240
235
220
294
286
255
253
221
207
237
234
264
254
252
252
144
269
207
259
349
279
256
340
195
248
258
269
248
283
249
255
222
254
240
247
260
238
212
128
333
159
330
163
234
231
146
260
163
254
296
151
326
160
288
181
238
267
219
276
279
260
212
256
283
276
259
245
258
248
263
175
236
300
265
256
282
315
260
240
269
302
218
261
134
230
240
229
218
116
251
284
291
270
186
254
230
217
249
296
148
237
247
260
228
189
238
260
270
314
285
258
272
266
250
226
197
241
266
257
324
341
244
240
256
287
282
252
260
192
305
261
236
155
337
178
146
227
255
105
192
297
156
367
163
254
270
283
238
276
226
316
255
292
257
229
258
250
257
241
231
292
268
241
228
170
227
198
276
183
318
160
211
325
165
121
311
252
372
172
296
345
273
261
142
226
236
293
292
256
262
268
230
239
202
225
291
272
269
272
280
202
242
283
269
338
222
217
202
207
291
290
233
224
261
264
230
269
255
279
279
228
230
131
277
271
282
209
303
278
217
214
273
258
266
243
222
242
210
282
251
202
230
267
235
237
117
331
252
303
235
250
126
326
261
227
229
262
260
286
247
268
242
264
311
218
277
275
255
291
274
249
282
272
283
197
271
259
225
218
133
307
171
338
322
246
253
250
247
240
154
330
266
251
214
209
218
194
225
294
269
284
322
227
214
239
219
319
246
272
274
273
248
234
249
281
273
201
276
206
232
234
250
128
226
238
259
265
242
249
254
253
256
221
223
288
328
221
217
211
121
309
214
252
263
233
298
246
215
230
252
254
226
258
248
271
254
236
210
201
203
353
165
288
132
253
231
220
230
252
244
247
256
282
294
267
223
231
267
288
271
224
250
412
256
219
243
243
256
271
228
259
211
256
265
294
248
195
268
238
297
160
105
351
258
375
238
226
210
206
254
235
232
217
239
235
235
231
220
197
203
122
321
192
279
268
230
257
129
362
268
145
257
264
236
274
264
264
218
312
310
215
246
268
256
271
203
232
225
245
221
247
127
262
271
238
241
288
295
274
266
257
238
192
220
222
233
246
294
317
227
189
209
244
222
204
261
278
236
246
234
221
241
240
217
248
256
237
207
253
233
226
355
248
317
229
250
224
250
206
231
243
334
187
273
330
264
219
218
215
201
243
301
295
148
307
165
281
213
222
220
255
224
313
271
255
233
228
277
217
258
227
265
234
223
326
217
235
220
264
231
290
259
237
230
225
282
313
339
244
270
231
378
272
126
353
265
255
221
239
248
224
210
297
356
330
267
205
138
316
240
248
254
125
251
213
274
245
250
220
207
234
228
243
266
260
250
259
195
251
266
252
223
219
248
185
208
221
236
226
260
262
230
257
288
296
201
221
261
226
222
135
375
250
227
251
208
249
263
331
240
220
216
231
249
250
267
267
247
230
230
232
190
125
245
256
250
249
293
267
338
232
271
244
262
223
123
258
212
217
207
249
230
247
246
266
250
251
221
257
271
263
212
256
263
244
250
250
253
252
283
253
236
217
206
246
251
239
266
262
233
238
331
201
187
324
230
262
258
260
248
237
217
251
239
202
296
251
264
204
243
267
224
235
198
276
228
253
209
249
258
217
207
250
276
252
289
281
228
222
242
244
253
329
239
241
288
299
238
219
215
284
259
254
265
265
236
268
223
286
260
230
274
217
245
279
227
230
229
259
261
298
214
241
199
239
396
253
240
224
244
257
348
226
214
124
365
263
224
250
298
321
219
263
301
247
226
266
261
242
258
209
254
141
272
254
242
240
118
255
239
273
305
252
127
338
310
259
263
262
203
257
307
280
234
230
266
313
269
267
253
269
278
226
280
245
258
221
221
237
280
245
267
232
222
219
263
253
260
238
204
307
247
221
276
168
307
287
244
229
236
220
286
230
211
246
202
215
313
142
415
287
266
234
217
199
224
135
235
294
346
258
266
247
222
263
256
233
229
305
244
221
271
148
257
188
232
203
258
266
262
376
255
289
268
203
244
452
325
207
207
242
274
201
299
303
256
228
261
257
222
191
260
133
345
232
246
247
202
232
289
226
248
254
281
227
198
264
135
247
231
253
264
248
203
298
237
245
234
241
256
253
243
254
258
223
209
231
203
291
144
326
161
261
287
255
123
195
266
246
240
232
215
253
278
205
250
168
271
225
284
267
279
262
266
262
254
226
280
245
238
418
301
243
170
245
166
331
141
320
221
208
114
274
148
274
235
185
358
255
221
217
252
265
252
218
234
126
265
235
225
224
128
318
291
227
263
262
315
216
220
244
249
258
244
283
259
230
213
234
252
263
234
121
345
157
334
230
336
266
250
237
206
261
217
231
244
318
278
238
227
233
212
217
249
252
207
277
270
285
180
303
218
240
256
262
258
277
216
230
238
295
251
266
267
251
267
238
201
260
264
271
295
214
225
263
233
238
224
212
265
279
282
232
207
127
251
252
219
377
286
272
206
251
235
310
236
225
278
243
263
259
253
128
335
332
277
229
245
321
294
234
225
226
285
254
228
264
156
332
162
276
138
358
501
165
328
263
207
282
222
224
256
215
261
271
234
291
232
236
245
296
218
256
253
286
209
256
251
215
214
273
258
236
241
241
247
269
229
248
275
287
243
233
222
245
149
161
256
169
285
274
255
214
235
228
286
211
251
253
183
294
278
225
276
198
273
297
245
204
