214
237
245
228
244
272
267
246
238
206
207
222
223
231
268
241
241
248
238
238
222
223
239
242
237
244
237
232
224
237
242
237
243
255
263
240
235
243
231
226
235
251
240
246
238
227
228
231
235
231
229
238
239
235
235
232
223
232
241
248
247
260
254
243
234
241
241
237
239
253
256
241
249
246
238
219
228
245
246
243
222
214
214
206
214
236
243
251
241
242
240
227
218
216
235
262
263
252
245
249
242
243
233
230
249
264
251
244
251
246
230
238
249
248
247
256
248
239
237
235
235
234
232
239
241
249
235
228
230
223
228
241
256
250
232
224
219
223
220
224
232
240
234
242
239
230
228
231
237
232
242
253
251
222
224
219
228
236
231
247
227
220
224
225
221
221
217
241
266
272
275
263
233
224
215
217
234
263
259
265
232
226
230
227
229
259
230
252
251
239
236
223
217
219
235
239
239
238
232
208
222
237
248
240
245
246
238
235
230
215
213
214
231
250
244
243
245
244
228
232
238
218
222
228
238
235
224
227
217
211
211
221
230
229
220
220
219
213
208
202
206
196
201
209
213
224
226
219
211
206
215
223
230
226
219
226
229
217
216
212
213
220
223
231
234
235
226
220
219
220
219
229
230
230
239
230
225
223
216
217
208
222
240
240
236
233
226
218
215
235
248
246
241
246
248
237
239
248
235
236
248
253
247
247
242
239
230
235
236
238
242
249
243
238
230
222
220
220
229
240
242
247
244
231
229
224
233
243
236
237
244
233
223
226
227
224
225
233
248
242
235
234
223
225
228
227
235
236
228
233
228
222
226
225
234
225
244
255
261
242
226
233
214
218
226
233
238
232
231
231
226
229
228
238
252
245
247
248
238
222
221
221
230
236
243
240
251
236
230
233
229
235
235
242
246
248
230
227
232
229
223
232
239
242
229
231
229
219
219
229
232
235
235
240
239
232
217
215
213
215
225
232
231
244
234
227
223
223
228
219
225
242
240
230
221
217
215
217
218
223
220
223
228
226
216
211
208
225
225
231
232
232
226
214
217
218
218
221
233
228
230
229
234
215
217
222
216
218
224
232
233
232
234
238
228
228
228
236
236
243
250
263
251
240
235
224
222
231
237
236
240
238
236
227
230
238
244
244
244
245
229
223
229
233
241
242
245
242
237
229
222
216
213
217
238
247
248
239
230
231
223
221
217
224
231
230
229
240
233
218
208
231
235
225
238
242
227
227
208
208
210
206
219
234
240
242
230
224
216
213
216
214
229
243
238
238
229
218
219
213
220
226
231
240
241
248
247
239
224
221
226
227
237
240
234
234
226
225
231
239
256
246
237
230
229
221
220
215
211
220
245
250
244
240
239
230
219
224
236
230
233
240
252
235
226
221
231
231
230
250
252
241
244
244
240
232
229
228
238
245
232
226
229
228
226
225
240
257
247
241
241
232
216
221
230
239
237
239
245
237
223
220
205
206
212
217
231
230
222
226
219
212
214
215
214
209
217
226
226
223
212
211
208
207
206
218
241
243
243
232
215
210
205
205
210
208
219
220
229
230
221
220
211
218
225
227
233
232
233
226
212
212
215
215
226
220
229
234
225
223
218
214
220
214
222
231
233
229
215
220
218
214
220
225
233
240
226
230
232
219
214
216
225
231
226
243
244
231
228
224
221
223
230
247
243
240
238
234
219
214
211
213
218
236
263
264
230
217
213
209
213
227
235
247
239
244
250
230
221
220
231
232
241
242
240
246
233
233
231
232
237
235
234
235
231
221
224
235
235
241
253
239
236
225
222
218
211
215
227
231
234
242
250
238
232
211
209
211
210
216
218
228
224
225
243
257
242
250
245
239
242
251
234
236
221
235
263
271
261
261
250
259
246
233
232
232
241
239
246
253
251
245
232
234
239
252
239
234
234
239
248
249
239
231
231
235
232
224
227
233
222
225
239
256
252
247
233
223
212
209
217
223
226
224
238
248
247
231
230
208
208
213
215
225
228
223
220
221
229
235
235
239
240
243
236
227
226
220
216
226
231
248
247
233
226
212
206
211
206
216
226
228
241
239
249
232
221
214
221
226
229
237
235
228
218
209
217
221
218
225
233
240
234
226
225
216
221
237
238
233
233
222
226
215
215
225
233
234
239
237
232
232
235
222
220
217
229
229
237
247
248
234
229
222
223
219
227
243
241
243
236
238
236
227
223
227
250
254
241
236
224
217
221
230
231
233
230
231
235
233
223
219
218
231
231
229
233
235
222
218
207
206
214
228
241
232
233
249
245
235
225
211
210
211
219
220
209
208
197
198
203
208
219
216
232
236
233
232
232
226
215
223
237
239
234
241
242
234
227
221
222
230
232
237
243
244
246
224
221
226
215
219
221
231
237
230
231
221
218
223
221
228
253
253
246
234
224
215
205
202
206
217
230
239
243
237
232
233
236
240
240
238
230
233
228
219
224
225
215
232
244
246
240
226
218
206
198
202
206
221
262
271
259
236
234
228
224
211
223
238
247
242
252
250
260
249
251
249
244
235
241
241
231
223
237
240
238
241
249
248
236
226
220
216
217
225
239
231
230
232
240
252
231
224
229
243
262
270
254
229
225
224
223
222
218
223
227
225
220
219
212
209
212
222
240
249
239
237
219
212
209
208
219
218
218
221
222
223
227
216
207
210
215
219
226
248
235
237
227
209
205
206
210
209
214
206
209
216
210
237
253
254
235
236
242
241
233
217
219
218
219
223
244
274
264
257
245
225
212
215
214
218
229
246
269
264
243
244
242
239
246
253
253
238
243
242
237
231
235
237
240
249
247
241
220
228
233
229
233
244
233
238
226
233
237
232
223
219
229
232
236
234
238
245
228
224
238
238
239
229
233
226
215
211
208
200
208
211
227
233
225
223
217
213
216
219
228
228
228
239
232
226
231
226
218
219
229
239
240
234
229
230
220
218
231
238
244
229
235
233
227
221
224
219
227
229
238
237
234
224
215
218
216
223
248
256
256
238
228
220
215
216
219
236
254
263
257
247
245
233
230
234
234
242
242
239
240
234
239
228
228
230
242
245
239
239
227
227
226
224
227
237
232
231
233
233
223
218
221
228
229
231
249
249
238
221
213
217
225
224
235
235
251
260
240
238
231
220
220
222
232
250
245
230
217
218
229
241
254
258
253
236
234
233
240
242
237
243
240
234
230
233
231
223
217
221
245
256
258
242
233
223
223
229
235
246
240
254
262
247
237
222
220
224
243
260
256
248
238
232
228
219
218
228
249
253
263
256
229
230
230
231
245
238
230
235
233
225
231
231
228
230
240
258
270
248
232
227
220
214
222
224
224
230
237
255
252
243
231
231
237
241
250
252
247
224
215
223
237
246
251
246
249
247
247
239
232
223
220
234
253
248
248
236
235
238
243
251
234
240
235
240
228
220
228
247
263
268
259
250
239
236
224
227
241
261
272
282
252
247
244
244
224
222
235
245
255
245
247
268
272
262
245
245
239
232
238
232
230
247
260
268
255
269
273
256
247
222
225
240
241
243
240
244
242
244
232
240
256
252
251
266
256
234
225
239
236
235
237
240
248
233
233
228
236
245
238
232
234
234
227
219
202
199
209
228
237
245
243
238
233
222
223
207
210
229
230
243
257
250
241
223
239
243
251
254
253
238
222
218
212
207
208
220
236
247
238
240
249
229
220
220
218
220
225
231
228
231
232
233
231
226
229
229
240
250
240
238
230
221
219
218
228
240
231
228
228
229
219
211
213
223
231
230
238
244
238
241
236
227
218
214
218
212
213
225
222
222
230
227
231
228
235
245
240
230
221
219
219
220
224
233
235
232
230
230
223
223
217
223
234
228
236
227
214
212
215
215
222
227
236
229
241
251
240
234
246
253
247
251
259
248
264
247
245
233
230
246
269
266
250
242
243
236
237
221
225
240
249
250
256
249
237
229
238
240
245
234
242
247
240
235
239
233
231
239
247
241
235
228
225
228
232
245
256
245
247
246
250
239
232
224
230
239
234
241
238
228
235
235
239
254
253
245
244
240
227
226
229
229
232
241
255
261
246
236
238
231
230
237
250
245
248
242
248
236
235
235
244
257
254
239
230
222
213
212
222
223
232
238
250
249
234
237
232
221
219
223
235
238
233
228
222
225
226
236
242
239
249
243
246
235
227
223
221
229
236
255
248
246
243
238
234
238
236
242
242
245
249
242
243
241
241
237
255
259
245
230
220
213
216
223
231
246
253
240
247
244
220
218
219
229
235
235
246
257
235
231
237
244
241
253
256
252
255
250
240
235
233
236
239
257
261
253
233
240
239
232
239
257
247
243
250
243
234
231
234
247
249
252
259
254
236
230
225
227
220
226
224
233
245
229
222
231
227
229
233
250
256
243
238
237
241
227
236
243
241
241
241
241
239
232
239
234
238
240
247
241
228
229
225
231
239
244
244
243
248
242
236
231
228
235
231
248
249
242
237
240
233
222
237
242
237
240
238
240
232
222
227
234
241
237
242
244
231
228
225
228
229
234
246
242
246
246
245
231
226
232
235
250
261
253
243
230
228
225
227
231
237
255
245
251
250
241
232
234
241
240
245
256
251
241
232
239
247
244
250
260
250
241
244
242
229
237
244
249
247
253
245
238
246
244
241
246
255
253
246
248
243
231
225
239
253
246
253
255
246
229
233
239
244
252
255
255
247
240
245
247
243
241
250
264
260
251
235
240
240
238
250
271
275
256
265
259
245
238
251
265
257
258
259
251
239
246
259
257
251
243
247
247
248
239
244
261
266
262
272
256
236
232
235
233
238
248
255
252
249
243
230
228
222
227
244
245
239
239
232
222
223
232
240
248
241
246
254
239
232
236
245
230
245
265
255
250
247
242
233
237
251
257
256
245
262
264
254
248
233
231
238
231
229
222
224
223
222
226
234
226
237
250
243
248
238
227
225
220
228
229
219
215
209
211
211
214
238
247
239
244
257
257
234
233
227
230
238
234
237
248
252
244
228
241
246
257
246
260
261
251
237
234
239
236
244
264
266
267
252
249
248
241
243
252
262
249
248
254
244
225
234
244
254
261
275
262
244
238
234
229
232
235
240
247
241
245
240
225
239
245
251
262
263
252
241
254
271
280
280
270
247
254
249
235
229
253
285
277
270
280
268
242
239
243
294
338
354
332
303
270
248
246
249
247
250
256
253
264
272
268
257
265
265
260
245
243
235
232
230
223
235
246
238
227
217
225
228
225
241
255
257
242
237
233
225
224
225
236
260
251
243
250
233
226
228
235
235
241
241
253
247
235
235
239
238
244
252
254
244
242
244
241
251
258
252
260
267
262
245
240
234
233
252
269
257
249
246
236
225
228
242
242
248
255
266
251
241
236
245
247
249
261
252
244
248
238
237
237
243
248
250
255
252
243
241
242
233
238
256
254
243
238
231
222
216
224
235
239
251
250
254
249
246
231
238
247
247
252
258
251
237
235
249
249
246
252
265
254
257
254
249
236
240
256
261
255
253
243
235
234
243
261
272
256
259
269
245
234
235
241
254
259
251
249
251
233
244
264
272
272
255
254
248
238
226
227
230
249
280
283
273
249
247
256
282
270
260
252
247
250
233
228
234
251
252
257
277
269
256
258
263
247
243
255
267
259
249
242
236
236
229
239
251
260
247
254
247
247
238
244
248
248
246
252
242
233
225
232
246
247
252
261
256
231
229
237
228
229
230
246
273
274
294
266
246
248
258
249
246
241
234
227
224
230
240
254
269
259
273
269
262
235
245
246
252
253
258
257
255
237
247
246
248
247
259
257
253
241
233
238
238
242
256
260
251
244
244
238
234
235
243
253
247
254
254
247
229
234
246
246
252
256
249
251
240
239
243
255
244
264
270
264
241
236
240
231
241
263
265
248
248
251
235
235
242
243
240
245
262
250
235
229
233
238
240
251
261
257
238
232
235
234
236
240
249
251
248
243
238
243
242
252
249
249
251
261
240
228
230
240
227
224
228
237
239
248
248
236
224
221
236
244
231
232
234
243
232
225
230
246
253
238
243
242
225
220
220
229
236
240
248
258
255
227
227
231
222
216
215
226
248
248
239
236
252
245
248
261
264
257
243
244
246
232
229
243
261
250
259
253
231
225
222
281
299
297
286
269
244
232
240
243
262
267
280
286
287
256
255
262
256
265
272
270
249
258
254
250
232
252
265
256
270
269
247
228
242
251
255
248
236
228
227
229
234
261
278
273
259
272
