95
158
225
195
200
203
196
194
189
194
198
189
197
199
200
189
198
189
195
203
201
193
201
191
193
191
196
202
197
200
192
193
191
196
199
199
193
199
189
193
199
193
195
195
202
199
197
189
197
200
201
192
199
189
194
194
192
194
197
203
191
194
193
195
197
202
197
198
188
194
196
197
195
196
199
195
194
189
193
197
200
193
198
193
192
194
199
190
201
203
196
191
194
192
199
200
195
195
192
193
190
198
192
196
196
197
194
195
188
195
204
200
199
194
190
197
157
225
201
196
204
190
192
191
201
198
199
195
196
189
193
198
198
198
196
198
194
201
188
193
199
201
193
195
191
194
194
196
195
196
201
200
196
193
200
200
204
191
202
191
195
197
196
195
200
201
191
195
196
193
195
201
199
197
190
199
196
197
200
196
200
199
198
192
193
199
202
191
202
188
196
194
199
195
198
198
199
195
195
193
200
198
196
200
193
194
191
200
190
195
200
196
193
195
191
197
202
202
195
192
196
197
198
191
202
206
196
195
197
192
196
198
197
199
192
201
184
201
194
203
197
195
193
194
193
197
197
199
197
195
191
191
201
187
200
167
234
191
195
197
195
200
199
195
196
194
195
195
190
202
197
200
189
198
190
190
201
200
194
185
203
191
196
195
196
193
204
192
194
192
194
199
199
177
214
189
192
198
188
199
197
202
188
196
194
194
199
170
231
198
190
198
194
195
198
198
199
192
197
193
194
197
203
176
219
190
194
197
192
193
203
200
195
195
191
198
199
200
195
200
187
194
190
193
195
197
198
197
200
192
192
201
205
195
196
192
201
195
195
194
202
197
198
193
193
163
230
201
195
202
193
193
194
199
194
201
201
201
193
199
196
195
202
199
200
190
191
193
204
191
197
199
197
191
199
190
197
206
197
194
198
198
191
198
195
198
196
198
193
195
192
196
196
202
185
205
191
196
200
198
203
197
200
197
194
189
200
199
199
196
197
189
195
199
190
201
200
198
192
199
193
197
204
200
194
200
141
233
209
194
197
193
200
191
192
189
197
200
201
194
199
192
197
202
188
200
200
205
191
197
198
196
194
197
195
169
229
190
197
196
203
195
199
192
199
193
195
197
197
195
198
187
194
180
212
194
192
205
190
193
194
196
199
200
195
201
191
195
201
177
213
200
200
201
196
191
194
200
200
193
198
176
213
198
195
202
196
203
195
202
188
196
200
210
193
198
192
199
193
192
200
181
219
177
214
199
193
196
204
197
199
190
198
195
195
201
195
200
196
197
189
191
202
202
192
201
189
196
193
179
216
182
223
198
197
199
192
197
203
194
196
192
192
190
195
200
197
198
199
200
192
191
202
202
198
199
193
192
193
168
226
199
203
196
192
194
194
196
200
195
202
191
194
193
203
165
234
200
202
194
194
196
200
199
198
202
190
194
150
239
194
200
204
197
194
197
193
164
239
202
196
194
195
199
197
195
202
202
194
192
198
191
197
206
199
197
191
197
200
197
142
244
207
195
195
196
191
200
205
197
194
190
198
191
198
197
197
201
198
193
196
194
205
199
195
157
235
200
194
200
193
150
243
197
195
193
195
203
199
196
197
193
195
192
201
194
198
205
195
194
193
196
205
200
194
202
191
195
195
200
193
200
202
194
198
200
193
198
164
239
200
195
195
197
197
197
196
198
199
197
189
194
198
209
193
198
188
208
193
197
199
202
196
195
195
201
191
197
204
196
204
187
192
197
197
193
196
203
194
196
197
197
198
203
200
197
190
198
198
194
192
200
200
194
194
200
192
196
204
201
195
194
200
192
197
197
202
199
197
198
196
187
196
202
201
193
163
222
199
197
189
198
200
180
217
195
196
197
199
199
198
193
191
194
197
189
200
199
198
191
199
196
192
200
204
199
195
193
202
198
191
205
196
198
201
195
189
196
210
196
199
188
203
175
216
198
199
199
204
196
192
192
195
209
202
197
193
197
191
185
212
199
199
198
201
194
188
203
209
200
197
196
197
190
205
196
199
173
229
194
192
196
205
200
199
200
191
198
192
187
212
166
239
182
216
194
192
201
205
198
193
191
195
197
193
195
199
174
223
196
196
196
200
203
195
205
190
192
197
182
216
198
200
192
195
191
198
195
203
180
214
168
221
197
194
195
201
205
195
193
197
193
199
208
190
198
190
196
192
193
201
198
198
193
195
200
192
198
208
198
207
189
195
197
198
194
192
201
199
194
190
195
203
202
191
197
194
197
193
200
194
199
206
197
197
196
199
200
199
196
199
195
194
193
202
192
198
171
232
198
193
198
198
204
168
230
192
196
198
195
191
185
219
194
192
198
196
195
202
197
201
192
194
201
202
194
199
171
228
174
219
201
199
201
193
204
189
194
165
230
193
199
204
199
195
193
200
198
202
198
204
187
196
196
198
194
197
203
195
194
193
197
199
202
199
203
191
196
196
199
201
172
227
197
201
189
194
202
205
191
196
192
202
195
193
200
205
203
193
199
199
197
198
200
200
203
194
189
197
195
204
198
202
193
205
189
198
206
201
193
185
215
194
204
188
202
202
197
192
199
190
197
202
201
194
198
198
191
198
193
208
195
201
195
184
214
176
224
169
238
193
192
194
206
187
199
199
207
190
194
178
220
207
199
201
155
236
194
203
196
200
200
203
193
195
196
185
221
199
151
235
200
193
206
196
198
203
203
167
221
200
201
203
198
201
190
198
194
203
194
198
205
200
197
194
202
201
201
198
200
195
204
198
198
196
208
202
196
197
197
196
199
205
199
197
191
197
203
197
198
201
207
196
197
194
203
201
202
196
203
190
195
203
195
200
200
206
193
197
197
198
201
206
200
198
192
200
200
193
205
197
202
193
201
191
197
208
201
197
200
196
193
200
196
210
198
199
198
203
192
198
208
202
196
192
199
193
200
196
199
198
200
198
194
196
207
205
198
201
195
197
194
201
195
200
206
193
197
197
197
197
204
203
198
192
202
196
199
202
199
209
199
199
196
196
201
208
192
198
196
193
200
196
190
210
209
198
197
199
199
202
207
196
199
195
195
203
195
206
194
204
194
196
194
198
211
200
197
200
204
198
201
198
199
202
204
195
195
196
201
202
200
203
192
198
197
197
196
205
205
196
200
198
194
205
207
198
202
194
198
194
201
198
196
204
199
199
193
197
207
205
195
206
194
199
205
193
202
205
203
193
203
192
197
203
203
196
172
227
194
201
199
202
198
206
205
197
192
199
209
203
192
199
164
230
198
192
207
197
201
192
203
193
198
204
204
202
197
193
200
206
194
200
167
239
193
197
196
201
202
195
202
195
195
194
202
190
200
205
185
216
196
198
197
202
199
206
191
193
162
230
195
199
207
193
196
198
197
197
205
202
202
188
198
198
196
194
199
204
180
223
190
198
209
199
194
198
197
202
195
196
203
207
203
196
199
197
205
199
204
196
205
190
191
207
198
199
200
209
203
192
193
206
211
200
196
198
201
194
200
198
207
200
195
202
200
196
200
210
151
242
192
205
203
196
202
201
210
196
198
198
201
200
205
201
184
209
196
208
194
206
196
207
199
197
193
201
212
206
198
201
201
193
201
199
202
198
201
197
196
191
204
208
201
198
190
199
177
223
203
206
201
199
204
198
194
202
205
196
200
193
202
203
141
128
313
214
194
200
195
202
197
210
195
198
192
202
196
194
202
193
200
197
196
177
215
208
204
194
200
198
197
199
199
200
181
221
201
196
194
202
200
201
194
207
191
189
209
198
203
197
212
194
200
200
198
205
208
199
197
199
202
201
195
205
199
206
195
198
198
204
162
240
188
216
202
141
243
206
207
202
198
206
192
196
206
203
201
204
188
200
205
198
199
200
214
196
200
196
205
204
205
197
197
199
199
204
190
204
207
198
159
238
200
199
207
206
201
197
205
195
203
201
199
205
204
197
193
200
202
206
198
202
190
196
205
194
200
205
208
196
202
197
198
204
207
199
200
194
198
200
194
205
204
199
193
197
194
195
209
209
199
196
197
198
202
201
203
200
200
196
195
191
195
207
197
198
192
201
192
197
196
204
203
196
202
196
193
201
205
197
199
192
195
193
199
196
201
205
198
201
190
195
205
210
194
203
192
196
192
193
199
199
201
152
234
191
192
196
206
199
197
190
192
196
201
194
198
205
203
197
194
200
204
206
197
203
195
196
198
202
199
203
206
203
199
196
205
211
205
198
207
197
197
203
205
205
197
207
200
198
195
203
212
201
200
202
199
200
205
203
202
207
207
200
195
201
211
206
197
210
193
198
203
202
202
202
210
197
201
198
209
208
191
215
183
219
178
225
165
240
203
196
200
199
192
205
208
198
171
187
225
226
180
219
208
200
193
203
167
235
198
203
180
172
232
196
210
191
202
203
204
206
199
194
175
236
203
203
197
195
201
202
191
202
209
196
197
198
201
201
206
202
198
196
203
142
132
318
210
204
201
198
198
201
197
205
202
203
188
200
206
198
200
203
208
179
215
205
199
205
207
202
195
200
200
198
196
208
199
201
202
199
196
185
231
200
205
197
201
196
204
202
197
207
199
199
193
200
207
200
196
205
198
197
200
199
202
201
211
199
201
198
204
184
223
173
228
197
199
202
195
206
205
200
200
202
193
169
242
201
201
203
197
199
202
203
205
202
200
206
191
201
204
204
196
209
192
199
206
195
204
202
211
200
198
197
205
208
203
202
200
177
222
205
196
206
200
203
204
195
195
207
212
196
204
203
201
196
199
210
199
212
196
199
197
203
205
188
218
204
191
200
206
150
247
209
202
198
200
198
201
207
204
202
191
201
199
197
198
205
205
197
204
195
195
206
210
198
204
200
195
186
219
203
202
208
192
204
182
212
206
194
216
195
196
199
210
193
203
210
205
199
196
167
242
206
203
204
191
199
202
201
201
203
209
195
202
198
209
204
208
204
208
194
195
210
195
203
203
210
195
198
199
206
206
204
207
195
199
202
201
200
206
214
196
197
203
205
203
208
202
202
191
202
205
195
207
203
203
198
202
204
202
209
206
211
193
203
205
204
196
204
212
196
198
201
205
203
206
204
207
195
201
207
203
205
206
210
196
206
200
206
201
205
206
202
193
197
212
199
202
206
209
202
196
202
212
214
198
202
200
205
200
197
207
210
201
197
207
204
202
202
208
208
200
200
210
203
197
208
213
207
199
196
206
209
208
197
205
204
202
201
200
212
203
206
196
211
203
202
214
206
200
198
199
208
205
198
201
212
204
202
197
207
209
206
200
212
202
200
204
206
206
203
211
203
200
197
212
211
195
207
203
203
198
203
210
202
207
200
213
200
199
204
216
207
199
203
195
207
202
200
206
205
208
195
198
209
218
200
200
200
212
205
195
207
213
206
198
206
201
201
202
208
209
198
191
212
205
201
206
214
202
200
195
210
210
210
199
211
201
197
202
199
213
208
200
203
204
199
202
213
208
204
197
205
205
199
206
197
223
196
207
200
192
206
212
207
198
195
199
193
220
203
204
215
202
199
197
209
211
196
203
200
206
192
199
169
245
205
199
210
194
198
204
216
203
200
197
205
200
197
210
208
191
204
210
195
202
206
209
199
197
206
203
200
199
214
210
197
204
202
198
203
212
205
199
194
199
209
195
203
204
171
236
201
197
210
206
207
204
204
195
201
206
201
203
209
204
194
195
207
202
209
204
172
229
183
224
206
207
201
204
205
203
196
201
216
206
199
192
205
204
197
207
181
232
201
199
205
202
206
207
207
202
194
204
208
193
208
206
210
193
201
199
210
208
199
205
186
216
200
206
211
196
205
203
210
192
199
210
212
195
201
195
207
208
191
204
209
208
197
206
163
245
204
204
212
190
202
204
203
201
203
210
196
203
200
199
204
212
205
196
198
143
252
201
213
212
200
198
203
201
202
209
185
224
195
202
206
198
201
209
206
196
206
207
201
204
214
200
203
200
208
202
197
208
148
250
205
206
203
199
213
208
201
196
209
207
195
204
209
214
197
206
205
197
204
209
208
202
193
197
205
209
210
200
206
206
209
197
203
215
210
204
193
208
208
196
201
208
214
192
203
202
209
204
204
205
183
230
137
136
323
215
203
203
209
195
194
207
213
199
201
198
203
201
199
208
208
207
201
208
197
208
215
202
203
206
200
197
207
200
204
207
202
206
194
203
209
208
208
204
200
206
207
196
208
212
204
202
203
201
202
211
207
202
196
206
209
195
207
213
212
198
206
207
204
207
210
210
199
196
197
211
206
200
206
206
209
196
198
206
219
207
201
195
203
216
203
204
204
210
208
199
196
210
214
198
204
200
209
198
205
208
204
214
206
201
196
207
217
205
204
201
205
201
201
200
209
213
198
201
200
210
212
208
207
208
196
200
204
207
209
139
136
236
241
197
205
213
210
203
197
197
202
212
202
202
205
210
200
203
198
212
216
200
200
201
203
202
200
209
202
208
204
208
196
202
214
213
201
200
202
208
202
202
213
191
212
204
207
201
201
209
205
211
198
199
205
207
214
200
208
197
206
206
206
207
200
211
205
199
198
205
212
204
189
215
190
228
200
207
215
210
196
197
206
212
196
204
207
209
206
193
200
217
214
196
207
201
200
209
199
205
209
211
195
200
168
152
306
201
202
206
204
196
201
215
204
204
184
228
198
202
214
210
199
197
199
206
209
193
202
191
228
207
193
201
213
210
170
231
204
197
201
203
211
166
241
205
197
198
208
207
200
204
202
195
201
211
196
201
210
207
200
198
206
210
208
198
203
205
205
200
196
213
206
201
151
241
208
199
216
206
202
200
208
201
202
203
211
211
199
205
205
195
206
211
206
201
174
217
209
205
208
199
205
203
211
202
204
213
208
204
181
226
181
220
213
201
206
200
211
195
206
210
203
205
189
225
198
209
180
228
206
206
209
193
199
211
212
195
203
200
209
199
179
228
215
208
196
184
231
203
209
210
201
203
204
196
205
202
208
200
187
223
201
200
210
214
199
206
203
198
205
202
211
201
207
205
201
196
190
232
202
204
201
206
202
197
207
212
208
198
203
206
170
243
207
206
207
197
196
208
203
203
204
206
200
201
202
207
216
200
205
205
204
202
199
216
208
205
205
200
200
209
207
208
209
193
207
204
155
247
212
207
200
211
201
201
212
209
203
203
206
197
201
214
206
206
205
207
194
204
209
208
204
213
203
195
187
224
214
203
203
206
200
196
204
214
204
204
186
220
206
197
208
213
212
199
206
201
203
208
214
206
196
204
202
201
199
211
212
198
200
202
173
240
211
206
208
195
198
213
204
206
201
210
202
196
198
211
212
198
208
200
199
202
205
210
203
153
243
212
200
200
203
213
202
