124
189
190
201
197
197
196
187
188
185
188
179
186
187
192
204
209
200
206
184
182
182
186
181
191
199
201
198
194
187
186
193
189
170
203
186
195
204
196
204
200
202
187
185
180
183
193
157
111
335
196
198
192
187
168
129
256
187
192
194
195
199
208
198
188
182
179
179
184
180
193
199
205
201
194
185
183
185
133
244
194
193
198
196
201
193
198
174
196
176
180
181
188
197
203
197
140
249
184
184
179
179
112
262
194
200
192
193
200
201
184
180
177
181
184
196
184
204
201
207
193
191
180
180
184
192
190
202
195
199
207
195
191
182
184
179
137
233
192
205
216
204
203
183
142
113
290
187
186
199
195
198
191
188
190
188
179
181
176
177
184
150
240
202
202
201
187
183
176
180
189
198
195
202
195
198
199
188
186
183
187
187
143
237
196
206
218
202
152
225
181
183
182
189
192
204
197
201
195
190
161
212
176
185
179
187
182
199
193
205
200
191
180
181
180
185
191
196
198
201
196
195
192
182
187
185
192
185
194
192
198
205
211
193
190
179
180
185
182
190
194
176
231
200
193
183
183
184
183
188
186
189
188
203
193
197
188
187
180
180
176
179
192
204
201
204
195
190
192
182
178
185
191
196
194
202
197
202
202
194
185
182
174
182
189
194
197
196
208
200
193
179
175
181
191
188
191
192
197
191
156
229
189
179
178
174
160
207
190
138
265
196
200
178
181
139
223
175
184
190
199
198
199
189
191
189
180
189
181
181
192
200
191
199
203
209
181
181
135
116
115
186
192
125
277
195
199
193
193
177
178
177
183
180
195
188
195
210
213
194
184
178
170
179
182
191
192
202
197
203
190
182
182
183
179
190
124
136
309
207
193
198
196
147
212
176
176
184
192
196
193
201
189
192
187
180
184
177
192
181
195
189
194
200
201
186
188
176
178
174
185
184
198
198
201
199
194
179
182
185
185
191
191
187
192
198
189
201
189
187
178
182
181
169
206
205
202
205
193
191
180
179
176
167
205
192
196
200
199
193
199
189
179
179
176
181
180
181
191
196
202
198
193
182
176
175
182
189
190
196
191
199
200
188
182
178
183
176
183
183
190
202
213
202
194
187
182
182
184
174
185
191
205
180
219
194
191
191
192
180
188
178
191
189
204
199
207
202
195
184
185
182
186
195
201
200
204
199
189
191
183
188
187
198
181
201
191
201
204
210
192
190
194
170
188
187
194
200
207
197
141
238
193
188
195
187
193
191
197
199
206
194
200
190
185
174
174
176
186
201
212
210
214
190
188
185
178
183
189
203
197
204
195
200
204
199
179
182
137
130
271
199
190
200
201
201
188
182
177
180
178
193
189
200
197
200
205
190
187
178
184
178
194
183
192
202
210
202
207
185
184
177
178
181
188
201
199
159
241
187
189
187
180
181
182
177
150
225
187
204
198
202
185
181
175
179
190
194
189
204
190
203
198
189
183
183
187
186
192
190
191
204
217
207
199
181
182
178
187
182
194
199
203
201
204
189
184
188
184
178
193
182
198
205
196
201
198
196
183
185
182
185
191
208
206
210
202
204
189
183
135
231
192
194
195
198
192
203
203
195
183
181
174
177
190
189
192
195
208
203
203
186
180
182
192
192
195
193
198
193
160
232
193
175
194
176
187
180
193
206
212
199
203
183
184
185
184
186
187
200
198
204
203
197
194
192
181
185
182
188
190
205
195
212
208
201
183
182
179
186
196
201
199
208
199
155
248
183
186
180
191
140
243
192
197
204
222
198
192
171
176
180
188
192
209
214
218
205
199
181
185
190
192
198
190
196
199
207
203
207
194
182
179
180
187
197
138
132
192
167
203
201
185
184
163
202
195
162
232
200
199
208
208
193
184
181
183
183
192
187
205
155
268
195
190
182
186
186
192
188
197
195
200
206
192
194
184
187
179
186
165
206
200
216
203
208
184
182
181
182
186
189
199
196
204
201
198
199
193
181
183
180
188
182
198
190
208
209
205
182
183
179
184
193
195
197
208
199
201
199
185
186
183
184
187
194
190
191
201
212
205
201
180
178
177
185
183
198
135
265
195
202
188
186
183
182
174
190
179
191
188
195
191
199
193
184
179
181
177
183
195
206
202
147
247
192
172
194
182
181
191
146
103
336
164
243
205
191
184
180
180
180
190
187
204
203
210
196
177
193
180
184
193
187
195
189
199
201
200
192
184
184
179
186
188
188
196
212
212
209
197
186
178
183
178
197
199
213
200
206
196
199
198
126
243
187
185
189
205
198
207
202
207
186
185
154
126
273
203
200
210
198
204
200
184
182
179
185
183
188
183
188
202
213
199
193
176
178
176
186
179
194
198
208
203
204
193
187
187
183
185
190
190
192
203
194
193
218
193
178
179
176
186
192
203
199
215
191
195
185
143
222
180
191
180
192
192
194
204
208
163
209
176
182
178
188
184
203
206
162
116
319
188
181
183
186
192
196
189
195
202
197
203
188
187
181
182
187
185
199
209
203
210
197
192
179
182
175
188
190
200
188
157
231
197
156
235
178
181
175
187
190
192
197
198
207
198
187
179
175
182
190
190
196
196
195
195
205
187
188
181
187
183
188
187
196
182
243
197
199
182
184
182
183
187
193
204
207
206
204
194
147
233
183
189
187
194
162
240
191
208
197
192
183
182
176
181
193
204
199
208
194
192
189
182
184
184
195
189
197
199
201
207
211
192
189
181
185
190
196
194
207
213
211
209
194
185
185
189
196
198
197
202
200
204
193
152
233
182
176
179
183
197
214
211
140
272
192
187
188
180
146
235
200
199
203
153
246
202
191
186
181
185
185
196
193
207
208
213
198
187
178
183
192
197
198
202
200
196
206
192
196
189
189
184
188
182
213
214
225
210
197
183
180
186
182
193
194
204
203
204
197
196
147
228
175
183
180
186
196
189
203
204
207
186
182
177
180
190
200
195
208
198
204
201
196
187
185
186
190
191
195
195
202
209
204
199
185
184
178
185
178
196
200
212
199
201
186
188
190
189
187
190
183
193
202
197
207
197
190
179
183
180
185
196
204
198
207
197
199
186
184
177
180
184
190
189
200
189
196
191
129
266
186
176
181
189
193
201
206
212
202
199
187
186
186
193
189
201
148
253
199
202
190
192
187
184
186
186
184
192
208
209
203
194
180
178
182
140
227
187
203
196
206
198
198
195
190
180
186
186
190
194
201
202
210
212
197
186
181
181
192
201
203
209
200
202
201
201
190
185
188
191
195
196
199
206
220
208
202
183
185
181
187
190
202
214
205
204
194
192
194
192
182
191
182
199
202
205
162
242
196
182
181
175
172
186
198
203
209
200
196
187
189
180
187
188
193
191
200
201
210
215
205
191
185
182
183
196
185
205
211
213
205
199
186
187
190
191
194
194
195
198
209
200
205
194
185
178
182
185
193
206
210
200
204
196
189
186
174
181
183
197
192
200
191
193
179
225
184
185
173
185
185
196
199
202
207
202
196
188
184
185
191
192
202
200
203
194
202
189
191
186
188
182
186
183
197
209
215
204
198
182
183
185
180
186
186
200
163
236
196
191
185
187
180
185
185
186
185
200
194
207
203
203
182
185
179
186
197
208
201
212
197
203
197
186
187
185
195
190
201
193
200
210
216
199
194
182
181
183
190
197
204
213
203
202
193
188
188
190
143
237
186
199
200
206
195
197
187
180
176
176
178
182
197
205
201
209
191
186
182
178
185
188
200
167
230
196
202
209
204
185
183
176
186
190
195
207
203
213
199
200
186
147
227
193
190
207
198
206
208
195
197
188
192
181
193
185
192
206
224
212
208
186
183
179
176
188
122
274
196
205
199
199
201
195
182
183
179
191
195
202
206
204
216
200
193
184
182
188
201
156
254
200
203
201
196
193
189
191
185
188
191
199
210
217
202
201
183
186
183
181
186
189
201
197
201
196
186
185
181
180
182
188
186
190
203
193
210
205
200
186
182
180
187
200
211
205
207
201
201
198
186
189
183
195
187
202
197
203
205
210
193
192
182
184
185
182
195
202
211
201
197
186
180
184
187
187
190
189
192
196
203
191
196
184
186
176
182
177
184
196
213
208
138
259
186
182
184
176
182
183
197
189
201
191
199
197
185
174
149
201
182
183
185
191
199
209
199
184
178
175
182
189
147
236
199
197
194
200
187
189
181
182
176
188
186
192
198
153
274
202
183
181
181
181
188
193
206
206
206
198
192
138
243
182
187
181
188
192
206
198
210
207
191
180
178
179
189
203
204
211
209
200
194
194
183
188
182
186
185
195
196
203
209
204
151
157
242
179
175
193
194
197
221
205
204
185
185
145
229
181
194
185
196
199
201
207
198
194
180
184
181
187
195
207
201
211
200
197
188
185
185
188
196
184
199
197
188
218
149
249
188
179
177
177
188
189
203
208
201
197
192
184
186
191
190
194
195
195
200
205
189
199
191
189
181
183
180
195
204
210
202
211
152
231
191
183
184
189
204
202
209
202
199
202
198
186
188
179
189
193
201
202
205
214
202
195
147
224
186
201
200
213
209
204
199
200
190
190
189
190
190
197
198
155
273
214
199
185
182
181
192
185
200
196
207
196
204
189
188
186
183
188
195
187
194
207
200
214
203
198
182
186
185
191
201
213
212
215
201
198
193
183
190
188
197
191
203
198
208
213
206
188
184
178
184
194
193
208
205
215
201
203
189
188
188
194
171
227
201
207
211
199
205
191
190
184
187
183
195
211
223
217
211
123
254
187
179
193
195
202
199
210
199
204
161
230
175
180
183
191
198
192
208
206
215
196
189
178
181
192
202
194
207
194
203
210
195
192
185
189
185
195
186
172
238
216
204
200
186
184
188
180
192
193
208
198
205
199
193
190
188
180
187
186
190
194
192
202
207
206
186
181
180
180
189
202
198
206
197
201
197
194
183
184
186
190
190
191
191
207
217
213
195
183
182
180
188
182
196
197
212
198
205
187
183
184
186
184
194
187
197
198
203
201
202
192
184
184
185
186
199
209
213
214
206
199
188
186
178
189
194
203
199
206
195
204
149
254
187
183
178
185
196
192
155
251
202
190
192
180
182
182
194
188
201
194
203
197
199
190
190
189
185
185
186
191
204
216
209
157
244
186
184
187
185
196
203
207
209
208
202
199
194
187
188
191
194
201
208
150
266
212
199
187
182
180
189
200
200
216
210
203
193
191
183
187
187
190
189
126
120
126
243
223
209
197
183
187
184
193
189
204
214
217
215
200
190
190
193
190
199
187
203
202
207
208
203
199
185
189
184
195
149
266
206
219
200
199
191
178
184
182
197
187
195
188
193
136
278
188
186
173
181
182
191
197
201
206
203
203
193
187
186
189
189
197
193
204
203
201
202
200
197
188
186
153
217
199
216
210
139
273
192
185
186
184
149
233
195
198
202
197
204
198
183
180
177
180
181
191
186
206
204
215
193
190
177
183
188
204
195
211
196
206
206
199
196
190
193
186
194
192
202
212
221
207
203
182
186
183
187
194
196
214
202
149
102
348
198
193
183
188
182
188
192
203
190
204
192
188
174
179
174
185
195
208
203
208
196
200
194
185
188
183
194
187
202
196
199
209
214
196
192
182
185
188
188
200
208
220
206
208
184
187
191
193
192
198
188
165
242
203
204
191
184
176
177
180
185
153
270
392
215
192
185
182
180
182
193
202
212
207
206
152
248
194
184
185
186
195
197
206
202
212
214
201
189
183
179
189
202
202
212
202
206
196
196
189
187
186
185
186
193
194
208
213
206
197
182
183
179
188
182
198
207
208
206
199
191
191
191
185
189
185
191
196
209
198
209
203
191
184
185
182
193
199
203
208
207
207
194
190
180
187
189
193
187
194
191
200
210
209
187
182
174
181
191
186
197
199
219
159
256
187
187
185
189
191
197
192
201
196
204
201
198
190
181
182
188
187
201
216
212
212
203
194
187
188
178
189
195
205
203
206
193
200
197
193
185
147
220
185
200
128
279
208
212
191
190
183
183
188
195
191
203
193
195
190
189
182
185
184
184
186
187
190
201
216
211
200
187
184
184
190
184
197
200
160
254
205
196
188
190
187
186
194
183
192
199
196
208
201
195
176
180
176
179
200
206
199
220
203
204
196
186
184
182
197
194
153
246
202
213
220
197
191
178
178
186
190
200
208
229
210
157
104
307
162
217
186
191
183
196
195
201
192
193
182
179
175
186
178
189
201
213
205
210
191
133
234
176
186
188
198
152
242
193
198
203
196
182
148
205
182
187
190
202
199
211
153
240
180
169
193
192
186
200
188
195
193
200
192
189
181
180
180
188
186
197
210
211
211
197
186
147
221
176
193
195
202
199
154
136
303
200
189
180
187
181
188
200
192
203
201
213
191
190
180
183
184
199
194
210
198
157
232
191
183
183
183
182
181
189
190
201
147
272
195
192
181
179
182
181
194
199
213
198
206
196
190
190
192
181
198
187
200
200
202
199
203
197
188
185
180
182
192
210
209
211
200
190
186
187
178
185
182
190
188
203
193
198
204
199
183
186
177
181
187
189
203
205
212
202
202
187
186
187
194
191
204
196
208
207
203
199
193
193
183
121
259
192
209
246
227
217
193
184
185
179
191
198
210
197
207
197
197
198
190
176
178
180
190
190
203
194
149
271
199
191
182
181
189
204
199
213
199
207
202
199
191
186
190
186
197
195
199
213
223
206
201
184
188
187
183
193
196
157
143
334
202
193
190
191
182
193
186
195
200
198
208
205
201
182
181
173
180
192
198
195
207
192
203
196
187
184
180
192
192
200
153
137
315
220
203
196
181
182
186
188
198
205
221
214
205
195
188
191
191
192
198
190
203
206
204
209
199
194
133
239
184
187
196
213
208
213
141
255
183
183
176
188
191
194
140
245
189
197
204
194
179
144
212
181
192
192
199
201
213
202
198
188
184
185
199
193
207
198
206
198
202
193
194
193
185
186
187
194
207
220
212
203
123
257
119
235
175
188
194
207
200
206
188
191
191
189
185
190
183
190
203
200
211
208
208
185
187
182
190
149
262
208
218
203
206
203
185
187
185
199
192
205
200
160
259
217
202
191
180
178
193
187
208
161
256
193
202
185
184
184
180
185
192
188
198
205
198
202
198
194
183
184
178
188
202
215
208
214
194
199
189
183
188
188
202
190
203
200
205
216
209
187
185
180
184
196
189
206
200
222
204
202
187
186
185
159
225
198
197
201
208
192
199
187
187
178
179
142
219
199
229
243
202
184
183
183
179
183
185
196
194
204
202
200
196
193
184
188
180
154
222
198
197
213
216
209
193
182
181
185
203
203
211
205
202
202
208
190
190
184
185
186
193
193
200
207
209
198
189
179
179
180
176
187
193
170
239
201
191
188
189
192
183
190
179
191
193
206
197
207
200
192
185
187
185
194
203
207
211
212
152
251
194
179
187
190
202
196
202
195
200
214
210
187
179
173
176
192
183
148
248
205
198
201
185
182
184
185
186
193
194
204
204
211
147
246
185
188
182
191
184
200
215
296
218
203
185
183
187
183
200
203
171
146
354
204
199
196
185
183
190
187
197
210
199
209
208
150
238
182
179
191
206
207
219
223
208
196
197
184
190
