204
276
279
275
272
268
281
270
258
263
262
267
269
266
257
271
276
265
257
264
268
274
265
264
273
275
265
259
264
269
273
241
286
270
275
265
265
267
270
279
274
268
268
283
275
273
275
269
278
272
266
265
281
267
261
267
267
272
275
274
274
293
278
269
278
276
280
271
267
267
274
265
253
263
264
269
269
265
261
275
269
259
215
320
277
200
292
289
294
283
274
277
274
282
269
266
274
183
364
264
270
258
272
269
267
271
284
271
266
273
269
277
277
271
267
274
265
249
265
264
266
270
264
259
273
266
260
261
267
272
267
262
259
261
273
266
261
272
265
272
265
258
262
270
261
261
257
264
266
269
259
259
276
276
271
265
272
272
274
156
153
421
205
425
280
261
293
284
261
269
272
251
283
264
232
300
276
189
331
273
197
342
264
197
330
249
222
325
263
279
261
253
260
260
266
266
252
254
269
267
252
254
250
280
271
264
245
297
275
266
257
268
267
269
250
252
264
265
253
252
170
336
263
255
254
263
272
259
254
260
256
262
193
282
276
239
306
264
260
276
271
277
266
259
267
271
257
252
264
264
221
282
276
222
322
269
265
272
268
272
267
268
261
274
269
265
269
261
270
266
263
259
276
269
268
262
263
271
272
258
259
278
277
267
264
267
267
272
266
262
269
276
260
253
260
252
261
262
264
262
278
271
262
268
218
302
295
271
265
275
266
255
253
259
256
270
257
256
267
267
264
256
268
267
276
262
263
267
270
263
256
265
259
272
257
255
259
274
259
250
257
257
269
264
259
255
276
264
252
267
265
269
271
266
259
270
258
256
255
261
258
264
252
254
261
265
262
257
264
263
268
258
258
260
270
262
257
208
299
244
283
259
253
267
260
258
264
262
263
267
257
254
265
274
262
256
264
256
267
204
285
270
282
274
259
262
260
263
263
253
252
263
266
261
254
259
262
259
262
190
334
281
267
257
262
259
265
265
259
258
265
261
257
257
256
264
271
261
259
269
271
263
253
261
253
267
257
259
261
272
261
255
267
264
270
271
264
261
278
261
255
262
262
270
265
260
252
265
261
253
253
260
267
265
261
191
293
283
271
269
272
276
275
264
262
277
266
266
263
261
265
269
253
256
262
272
267
258
269
257
265
195
283
304
286
271
260
250
281
273
264
268
266
281
272
261
275
274
286
279
274
262
273
261
254
257
258
265
262
256
249
256
263
256
251
257
249
259
253
251
247
259
252
252
247
251
253
254
251
246
253
267
253
254
251
252
253
260
241
243
254
262
253
247
252
252
256
263
252
249
265
259
257
246
259
251
254
249
248
253
267
258
247
254
223
293
259
234
271
261
252
255
242
251
247
241
255
245
246
262
251
246
247
248
251
256
242
237
258
256
250
241
249
241
251
249
247
238
196
296
250
217
277
244
249
245
245
239
249
240
242
240
248
242
252
198
290
247
255
246
245
239
209
278
249
197
279
248
254
240
246
241
215
267
254
243
244
229
269
256
248
248
249
244
251
247
213
239
284
253
244
243
257
248
253
250
243
249
255
247
243
243
252
247
254
250
250
251
264
251
245
254
253
259
264
255
252
260
259
258
244
251
249
255
251
217
246
299
263
254
253
251
259
256
244
246
251
257
252
242
249
245
255
256
247
242
258
251
247
248
201
253
284
255
250
243
264
250
243
249
254
257
258
253
241
257
255
246
240
239
238
199
291
247
232
264
246
249
243
248
241
250
242
243
236
253
244
243
240
220
269
258
246
247
246
258
245
244
245
158
335
251
245
239
237
253
239
211
259
248
220
257
243
242
211
268
246
233
234
202
220
243
193
255
182
252
197
255
189
240
187
231
195
240
191
225
183
240
194
229
192
215
181
216
191
222
189
208
188
212
198
204
194
200
185
191
190
205
194
210
189
190
198
215
183
191
188
205
186
203
199
189
191
205
191
224
187
204
189
192
192
211
190
205
194
177
188
239
186
204
189
191
189
214
190
205
182
208
190
209
189
211
181
200
194
217
185
235
191
207
187
223
192
231
185
214
182
354
333
192
212
304
261
241
251
251
242
248
235
237
233
252
232
230
229
245
238
242
237
238
236
240
245
237
233
236
235
247
243
243
237
249
245
246
240
244
248
247
246
251
245
262
249
246
249
249
252
226
269
251
247
263
251
248
247
248
249
250
244
238
243
256
247
246
247
249
250
257
245
243
251
256
245
235
246
246
244
243
239
236
240
250
240
238
239
245
245
247
248
245
246
254
248
242
238
247
247
248
173
185
287
284
255
249
245
254
247
252
240
242
248
255
246
243
247
245
254
257
244
240
255
257
246
249
249
243
252
246
244
234
248
249
240
234
248
244
251
191
272
176
284
313
242
243
185
313
180
312
171
321
178
311
172
300
176
302
178
257
179
349
177
324
176
301
179
306
179
215
165
301
181
371
170
321
176
320
176
309
183
298
184
304
241
236
243
232
242
239
234
229
243
239
240
224
244
241
240
246
238
235
238
252
239
227
235
243
247
242
237
236
246
248
246
237
235
248
247
251
246
241
251
256
247
242
248
246
250
259
250
248
204
302
179
249
312
244
248
253
243
235
253
255
245
239
246
243
250
250
249
245
256
186
186
283
290
260
255
251
249
249
261
250
242
245
248
252
251
236
244
246
257
250
241
246
244
254
243
255
246
185
197
296
286
272
260
261
212
298
226
290
239
263
236
266
243
266
230
258
227
277
222
273
243
249
213
287
246
241
193
298
251
244
252
250
256
247
255
247
260
250
246
251
251
251
198
286
218
271
253
245
241
246
178
217
310
259
246
243
262
243
243
240
247
244
247
243
243
236
256
240
246
236
254
245
246
245
204
268
265
254
246
244
249
257
246
249
247
179
281
183
269
300
251
248
260
248
246
250
257
252
243
250
249
258
193
279
178
272
348
250
215
248
284
253
250
240
245
257
245
235
251
241
255
257
249
175
206
321
265
248
252
251
256
258
249
250
260
254
246
242
252
247
250
244
239
250
252
248
239
245
239
205
283
175
346
174
343
175
328
174
325
177
340
172
323
177
337
175
318
181
325
172
257
281
257
257
251
239
241
249
244
244
247
248
241
250
250
247
245
248
248
254
249
253
250
261
224
274
249
250
252
252
245
244
252
257
243
243
244
241
253
252
245
245
250
257
248
243
244
241
249
255
205
276
212
291
249
237
246
241
245
246
240
238
244
251
243
228
245
238
248
246
246
239
259
258
249
245
254
255
250
248
246
247
263
251
250
253
246
258
261
250
249
260
266
259
249
261
257
260
181
173
374
186
276
215
372
175
336
178
280
167
358
297
248
249
251
223
270
244
248
243
254
246
227
258
222
267
259
225
266
257
256
252
240
250
242
200
306
243
210
291
254
220
273
211
267
183
232
169
219
163
225
177
222
170
228
166
223
176
229
174
226
161
240
174
232
170
214
171
245
161
243
177
229
166
241
172
241
168
216
169
241
162
244
173
235
170
245
170
257
170
241
167
260
169
272
169
261
168
260
180
243
171
247
167
268
176
277
168
286
174
389
336
258
251
255
256
250
239
255
254
244
243
251
242
251
248
249
246
259
185
277
255
262
256
258
249
251
251
260
254
240
244
245
237
267
245
248
256
255
250
241
254
247
254
246
247
257
264
253
246
252
252
256
260
249
247
258
260
253
249
250
245
186
315
179
278
304
252
252
242
254
252
247
248
243
251
260
250
243
249
253
253
260
245
245
254
255
255
244
252
240
256
248
246
237
252
254
248
243
180
274
184
277
255
307
192
285
261
255
254
253
256
257
248
250
260
252
248
244
254
251
247
253
243
244
256
248
237
246
245
258
252
254
249
256
256
251
242
249
248
188
275
172
262
346
257
247
246
247
248
250
246
246
247
258
243
243
250
242
249
254
238
242
254
260
254
240
258
247
256
254
248
246
258
255
248
248
248
255
247
246
243
247
256
249
242
247
251
252
252
243
251
245
251
248
243
250
251
257
254
246
255
257
251
248
246
252
255
256
245
246
245
259
244
238
247
250
253
257
251
247
252
263
247
243
251
248
258
259
246
249
256
260
253
244
255
248
255
254
254
244
262
255
247
240
250
243
251
244
249
247
261
247
251
246
251
255
253
246
254
256
259
213
258
277
247
263
256
251
245
263
253
248
247
246
247
248
247
245
243
260
248
241
253
248
256
254
247
244
256
259
256
246
258
252
253
246
245
244
254
246
244
189
277
179
306
176
363
176
340
176
332
171
335
173
334
173
323
182
331
176
325
182
329
179
329
172
319
186
315
169
317
179
318
181
320
170
321
183
286
168
357
179
336
185
322
176
328
177
317
169
325
176
323
176
314
180
323
179
315
176
323
180
325
176
318
179
327
177
308
174
324
180
331
186
298
187
334
177
307
174
263
191
305
181
330
180
339
180
313
178
320
190
324
180
323
182
334
180
319
175
325
177
324
178
322
185
326
182
313
184
324
192
317
175
338
188
316
180
319
171
335
178
322
175
334
181
308
179
312
184
306
180
306
179
320
178
305
170
316
181
295
174
335
180
337
182
311
177
322
180
312
172
317
180
309
178
304
188
301
174
312
179
302
185
307
178
305
190
304
177
320
174
309
188
315
169
316
183
325
179
318
180
303
195
305
172
318
176
322
185
310
180
315
191
312
177
326
177
333
187
320
178
327
187
319
172
328
176
328
184
309
177
330
184
309
177
331
179
331
175
305
184
341
179
312
181
320
180
331
247
189
304
249
244
237
245
239
247
247
244
235
247
246
246
233
240
242
246
245
252
240
256
248
246
248
244
247
254
240
241
251
256
247
241
247
247
252
256
244
241
257
255
254
239
258
244
258
251
247
253
267
258
246
263
257
198
287
183
254
367
186
294
276
253
251
254
173
276
175
290
314
249
251
248
247
256
240
231
243
249
239
230
246
228
260
251
233
252
251
252
242
234
252
194
276
183
250
331
255
210
289
240
228
261
254
251
253
239
247
260
221
268
250
203
294
247
186
296
191
253
368
186
283
343
275
252
256
256
260
248
245
251
249
193
319
254
183
327
256
167
341
185
283
324
243
189
258
189
235
175
219
396
332
206
356
270
197
342
251
192
324
259
200
300
244
200
297
249
196
293
253
189
233
284
265
262
249
240
244
240
244
251
231
235
245
252
237
234
238
241
241
252
239
239
249
254
252
240
248
248
251
249
252
243
251
252
248
247
252
255
261
254
256
263
273
217
227
328
223
323
186
262
347
272
254
256
253
255
251
264
245
248
262
252
232
260
259
247
254
251
255
243
266
253
247
248
252
249
250
241
245
242
255
250
240
248
253
251
253
181
279
179
267
333
247
251
245
257
251
244
240
252
247
245
174
270
175
269
319
250
239
222
268
256
242
243
239
248
253
244
183
289
187
243
346
194
307
172
350
171
334
183
323
169
318
170
326
181
316
169
332
179
330
176
318
176
330
175
310
179
334
176
317
178
314
181
323
176
303
184
318
182
306
178
309
176
318
180
302
175
319
183
308
180
317
177
324
183
305
188
314
180
305
186
315
183
312
181
317
188
298
184
307
187
322
185
305
179
311
190
305
177
303
181
306
185
312
172
320
184
288
265
252
245
247
262
243
199
283
277
254
248
248
180
234
324
258
248
261
258
252
244
251
250
248
254
248
246
258
254
247
249
251
253
259
249
247
260
258
254
185
281
177
246
357
179
289
294
250
244
247
244
252
254
243
241
252
253
250
244
253
246
249
252
193
277
187
253
337
248
204
300
193
253
313
260
256
255
245
247
243
254
246
243
248
248
249
251
250
254
251
259
251
246
258
257
251
244
258
251
258
259
255
245
258
256
248
247
254
255
249
251
247
248
256
204
291
182
243
339
192
293
285
256
258
257
252
253
252
258
250
250
