42
278
191
238
215
143
276
191
245
216
138
276
222
213
129
294
214
208
214
217
215
146
275
158
264
221
143
183
279
209
211
216
211
209
210
165
235
215
146
275
211
209
151
273
210
204
209
170
240
131
294
181
228
211
147
277
190
225
207
148
273
196
224
208
201
178
238
206
146
259
199
209
206
207
186
119
305
147
273
205
204
201
203
142
268
209
202
145
258
207
210
203
204
140
263
204
209
171
235
207
141
267
211
204
207
203
205
134
275
190
222
205
137
269
152
260
205
206
207
200
162
254
205
143
260
194
230
208
144
264
207
205
154
266
206
200
161
248
212
145
256
161
113
303
211
208
205
203
201
206
211
202
202
201
126
277
203
199
203
200
129
268
208
200
141
258
199
204
203
202
142
261
199
200
203
203
201
193
135
264
199
199
204
194
199
197
202
203
202
200
201
202
198
205
147
258
206
200
209
208
203
203
202
210
202
212
212
137
275
182
240
211
143
262
194
226
206
132
292
126
284
141
290
166
258
205
143
264
154
249
216
150
264
189
233
150
262
138
273
208
211
161
253
211
138
274
129
298
152
265
165
259
217
135
286
144
277
152
278
165
136
318
149
277
217
145
276
146
281
220
144
275
150
277
148
252
220
149
267
194
235
217
138
279
147
283
148
278
169
260
210
146
289
214
124
298
213
207
144
275
208
149
262
217
154
268
143
271
216
204
211
214
206
145
262
194
224
209
200
161
249
202
207
127
208
242
208
210
210
208
141
263
158
256
214
146
268
147
268
209
139
283
187
226
211
206
169
246
205
205
183
236
210
145
268
148
251
215
212
216
209
207
211
215
208
204
106
309
169
255
216
147
274
140
285
150
282
211
208
216
210
212
217
205
178
154
297
217
177
237
207
151
263
216
211
211
178
163
288
210
210
207
210
207
209
212
156
241
220
211
211
205
135
272
212
206
214
214
204
207
139
280
172
252
206
140
271
141
283
212
210
207
214
217
208
211
212
213
204
215
217
206
207
142
276
207
218
205
209
163
128
329
165
265
210
209
218
214
146
275
213
133
293
218
215
214
207
142
287
215
209
213
213
142
280
218
214
212
211
213
150
275
210
210
131
296
165
261
214
210
202
230
211
212
214
139
282
221
223
140
285
157
278
220
217
209
209
145
279
216
213
211
209
142
287
212
211
127
296
213
215
150
275
216
210
149
286
153
271
145
285
167
275
220
218
211
220
136
303
214
214
133
298
156
283
126
298
165
271
216
212
213
216
142
285
221
213
129
299
225
213
132
284
212
212
131
298
214
213
127
299
224
216
144
280
219
215
145
291
219
211
191
245
216
212
187
237
159
153
332
219
212
214
220
147
285
215
219
144
290
225
219
144
287
219
220
219
209
144
281
217
214
149
283
214
212
151
286
220
210
143
277
216
219
142
280
211
216
153
270
207
207
130
291
217
214
143
275
216
221
146
278
212
213
147
282
221
211
132
290
222
218
129
292
215
217
142
284
222
214
125
302
227
213
129
298
216
212
132
297
215
210
139
288
221
212
139
276
216
213
142
287
217
211
146
293
221
212
214
216
171
258
223
213
213
144
286
209
136
309
153
284
206
240
218
132
298
204
238
219
212
197
230
219
181
165
297
154
282
226
216
196
237
219
211
215
154
267
211
212
203
138
293
149
278
210
211
219
210
211
208
215
217
209
203
206
214
208
207
209
205
185
219
215
144
271
203
210
211
213
129
291
215
203
211
215
128
287
194
223
208
213
185
229
223
210
218
217
219
141
278
179
258
222
217
214
210
130
306
217
215
128
301
219
225
130
308
221
225
134
312
219
215
146
278
223
220
145
276
213
216
147
281
212
212
149
271
216
219
128
291
216
222
146
276
213
211
147
275
217
209
144
273
216
219
143
273
214
216
132
292
221
171
184
278
133
302
217
209
212
209
149
277
210
211
144
279
220
213
147
270
219
211
132
298
212
208
150
281
210
211
143
275
209
216
138
138
335
217
220
136
294
214
213
135
289
219
216
132
293
220
219
130
292
219
216
127
295
224
213
213
212
221
131
294
211
212
135
294
218
212
134
287
221
218
129
295
197
235
218
217
175
254
212
217
180
227
239
212
213
208
217
146
277
212
214
216
215
133
283
212
212
127
299
221
208
144
278
223
212
174
247
204
209
173
249
209
208
183
233
221
210
186
208
238
211
213
218
211
148
269
208
140
302
215
212
149
280
222
217
129
300
178
269
222
211
166
265
219
218
170
262
214
215
179
255
218
212
175
255
225
220
174
207
137
343
167
272
219
217
212
214
145
278
217
211
220
217
133
287
216
216
130
303
219
215
141
287
226
212
145
273
218
206
149
277
215
209
173
256
215
131
293
219
215
217
214
145
283
214
215
216
212
203
147
160
327
171
260
216
207
164
137
335
219
212
209
210
153
274
202
130
297
147
282
153
269
196
232
129
296
217
216
129
295
206
226
212
210
210
206
213
215
166
163
290
141
295
166
255
215
133
295
130
310
217
210
215
223
157
267
214
212
162
260
221
211
170
253
219
218
174
251
214
147
283
220
213
217
205
210
217
210
211
205
206
158
260
214
142
275
171
256
218
143
277
214
211
209
214
213
208
166
247
216
141
274
139
276
145
277
164
258
210
126
291
149
277
143
273
168
248
213
146
271
147
242
144
281
190
223
210
146
274
193
237
211
207
163
267
218
214
211
211
210
148
275
161
262
215
213
178
158
291
157
266
216
146
278
213
210
212
217
144
276
166
246
216
216
175
251
219
211
177
257
217
211
172
254
215
214
172
246
206
145
282
207
205
207
210
207
141
284
167
250
209
144
287
212
204
149
274
213
213
173
255
210
139
294
218
215
141
288
216
217
149
280
218
214
136
303
220
209
146
279
217
215
148
274
209
212
149
275
215
211
189
235
220
146
284
216
213
218
214
216
207
160
259
213
213
167
257
208
129
307
212
214
212
214
211
216
190
235
209
140
289
180
242
203
143
273
212
209
214
210
205
214
218
213
209
207
210
207
211
210
206
205
203
206
212
198
104
311
154
266
213
215
183
170
269
217
212
218
208
139
274
210
205
149
259
206
211
215
205
143
274
210
206
212
214
204
205
204
209
211
143
265
207
206
201
205
213
201
142
267
191
234
189
222
207
215
193
227
212
126
288
212
217
208
210
202
210
190
228
214
143
275
211
213
217
213
141
277
215
213
150
279
209
209
148
271
144
282
157
261
214
131
175
334
216
206
145
284
214
208
209
212
126
293
217
205
204
208
210
203
220
136
272
172
244
138
287
152
259
211
148
275
143
273
156
260
215
211
170
250
201
149
284
146
270
147
272
166
257
216
143
273
189
238
215
143
272
144
279
151
280
215
142
276
195
237
214
145
276
144
280
151
283
144
277
214
217
172
253
212
209
172
248
211
144
268
141
283
224
208
212
210
133
285
216
216
145
268
213
218
168
249
209
209
170
179
285
173
252
208
209
175
245
207
204
167
242
206
146
264
190
223
210
147
270
161
245
215
207
213
210
204
206
203
213
207
207
201
201
205
203
207
148
257
203
204
136
274
145
265
206
203
136
277
149
259
201
205
210
202
127
272
129
276
206
209
205
204
197
209
214
205
205
202
205
150
258
206
204
135
268
206
210
142
265
203
205
202
208
204
207
204
204
207
131
282
203
200
202
203
207
200
205
203
198
203
205
202
203
199
200
201
144
266
207
204
200
202
208
202
204
201
201
147
257
145
268
147
111
337
217
205
207
205
206
207
210
210
207
206
203
209
216
204
139
267
168
249
213
216
205
145
262
201
229
210
138
269
175
125
322
216
208
140
273
177
250
213
138
274
186
240
216
140
275
142
282
219
211
208
208
135
283
145
287
151
268
215
218
158
261
211
208
159
259
218
141
274
140
285
218
207
141
272
217
205
147
277
209
205
131
292
211
209
127
285
213
212
212
210
147
265
213
216
210
206
144
267
154
260
211
207
206
208
147
276
212
201
152
239
210
146
272
152
264
213
210
155
259
205
205
160
252
211
208
170
234
209
145
272
212
203
205
205
142
276
165
252
202
141
273
184
227
204
142
266
172
240
207
129
277
145
281
208
205
209
208
144
268
215
205
152
256
213
213
208
203
131
251
213
212
216
207
148
265
158
271
215
206
205
211
209
211
207
144
246
186
244
211
211
155
133
330
170
264
210
211
211
215
149
270
207
208
148
236
218
216
151
263
212
220
164
259
213
209
163
255
218
139
243
208
212
217
204
206
143
268
209
209
153
265
213
105
314
217
212
144
265
147
278
155
267
212
205
209
214
142
275
210
207
207
213
214
205
209
202
145
273
210
205
203
207
140
269
213
202
203
205
212
211
207
201
148
266
179
238
215
206
203
162
178
292
173
242
179
236
211
142
279
183
232
213
216
208
209
209
141
272
167
257
214
209
206
209
150
270
207
206
213
208
147
169
308
156
262
216
212
209
205
206
149
271
180
242
210
205
155
137
325
165
255
210
141
273
188
235
208
142
274
192
140
296
211
212
193
226
215
137
270
184
247
211
142
269
185
231
164
259
210
145
265
215
218
145
267
211
215
141
274
220
209
145
271
221
212
147
274
212
212
147
284
211
211
145
278
220
209
142
266
186
236
216
209
153
259
211
214
204
212
206
206
204
209
212
205
207
201
209
211
204
204
204
209
203
147
271
209
211
142
280
157
276
209
210
217
167
254
215
209
148
264
221
212
213
204
142
278
221
209
145
273
209
212
151
273
184
236
215
208
212
149
272
214
212
147
278
217
208
143
279
174
264
215
212
148
204
292
146
146
324
218
212
215
217
142
270
215
221
145
280
218
214
145
280
223
213
132
291
203
226
210
204
208
216
211
210
152
273
212
214
136
300
218
210
125
302
221
222
212
214
214
219
145
283
215
212
143
291
224
215
144
288
228
220
145
284
215
216
144
292
217
216
140
290
225
217
144
283
216
217
129
306
217
210
149
287
212
206
145
279
214
212
151
276
214
212
151
280
215
211
143
283
218
219
141
280
213
216
153
275
210
209
153
272
217
211
149
272
217
217
146
280
213
211
145
276
221
207
149
270
220
212
153
267
214
210
194
236
214
210
187
130
327
130
290
216
212
185
235
219
208
171
146
313
165
261
202
207
208
207
148
271
212
203
199
139
291
155
255
193
216
207
202
176
232
198
203
181
148
281
201
200
200
177
150
289
206
166
235
208
145
176
140
334
171
158
290
148
221
156
295
163
259
207
203
204
141
268
213
160
247
207
209
190
225
200
148
261
205
207
151
263
205
206
149
208
126
332
214
210
142
276
169
254
207
207
216
208
209
205
207
144
273
219
209
147
270
218
214
147
267
211
211
147
276
213
208
143
269
219
207
148
269
213
209
152
281
213
209
147
281
220
213
143
272
214
213
144
278
212
206
146
282
213
209
146
274
211
212
152
275
213
209
151
283
215
205
164
252
210
208
212
211
206
212
220
210
211
208
214
210
213
149
272
172
253
148
281
191
239
217
215
183
253
218
215
177
249
222
214
168
250
215
210
173
260
212
208
167
146
333
148
283
221
216
147
298
196
240
220
224
219
217
210
217
211
217
147
283
213
207
147
286
200
225
213
215
161
265
215
211
160
262
220
211
169
154
304
143
281
145
281
146
189
311
221
217
140
285
196
234
216
209
165
256
219
215
182
235
215
211
183
242
217
210
182
145
307
149
186
301
215
140
275
194
235
210
207
164
263
214
136
279
217
217
140
283
217
212
145
285
217
210
145
278
217
215
131
294
213
211
147
281
218
209
139
275
221
216
146
272
212
212
152
273
213
210
146
271
213
216
143
272
214
218
145
273
215
210
148
273
219
211
147
268
218
220
142
272
212
215
140
281
221
204
144
266
220
212
149
267
213
211
150
270
147
277
158
258
215
208
205
206
211
207
213
150
270
202
135
309
219
219
127
296
215
220
147
284
216
210
150
284
215
208
144
280
219
221
147
286
215
222
150
284
215
214
131
293
218
215
126
291
216
221
128
298
215
218
143
282
220
214
144
280
224
217
133
289
215
212
133
305
213
211
128
294
216
215
140
280
218
218
146
283
217
210
146
287
215
205
147
268
208
215
152
268
207
210
199
231
214
126
294
211
213
143
279
212
202
144
283
215
202
144
274
207
213
131
294
209
212
149
283
215
206
142
277
217
211
144
281
211
208
138
288
210
208
145
273
217
214
144
270
212
210
149
273
210
207
147
268
213
214
129
284
213
218
143
274
213
212
146
275
219
210
146
271
219
216
147
272
217
212
143
283
219
213
144
281
225
211
145
271
222
211
145
287
218
211
144
284
217
212
140
281
215
215
149
276
218
214
149
283
220
210
141
283
222
217
144
274
215
218
150
152
328
174
253
159
266
218
212
208
217
222
210
147
276
201
121
313
226
210
144
275
223
212
146
272
215
214
144
286
215
215
141
280
220
214
141
279
218
214
143
279
218
212
143
293
219
214
144
288
217
222
198
235
149
282
176
262
152
277
183
245
223
224
214
214
140
170
344
223
217
142
291
170
275
219
216
181
252
220
190
235
217
147
287
162
276
220
141
292
225
221
140
285
219
217
147
289
178
243
217
217
216
210
145
279
217
218
148
285
218
217
151
279
220
213
171
249
218
218
170
250
213
217
181
142
313
153
277
223
220
192
237
212
221
197
129
310
152
279
220
216
178
250
211
218
199
130
313
150
283
217
216
189
241
214
215
194
133
308
148
277
217
217
145
283
147
287
173
273
223
213
178
142
154
354
172
261
215
217
216
212
140
280
157
268
216
218
170
251
218
222
174
245
208
217
187
128
316
156
264
171
260
216
147
270
147
277
220
146
285
206
213
211
219
212
143
269
213
207
208
211
204
204
183
234
210
208
173
135
309
161
263
209
138
268
147
282
143
274
141
276
162
264
223
212
214
213
146
295
218
214
142
271
220
217
147
281
212
216
