135
231
240
235
241
245
235
232
248
247
239
231
235
233
236
241
234
228
234
246
234
228
231
233
233
231
235
235
230
238
236
235
231
233
233
238
242
230
232
238
246
237
229
232
237
238
241
229
230
232
242
232
231
230
236
229
237
236
234
229
241
239
234
229
233
230
236
241
228
228
233
246
233
228
230
237
237
238
233
234
230
244
233
233
226
231
226
233
232
229
224
232
235
231
226
230
232
235
238
229
231
228
241
229
230
227
230
225
236
235
229
223
239
239
235
225
231
231
233
241
231
228
231
242
232
229
230
238
231
235
231
233
225
237
235
233
224
230
228
235
235
228
225
229
237
232
228
224
234
230
236
234
230
228
238
237
235
225
230
227
235
236
228
228
234
243
232
230
233
234
232
236
236
233
229
239
241
237
229
232
232
236
244
230
226
233
244
234
227
228
234
232
231
231
228
220
229
238
234
231
234
233
237
239
229
230
236
244
236
232
233
237
242
242
232
232
232
244
235
236
230
237
233
240
234
233
230
244
236
234
229
232
229
235
238
230
225
235
242
230
226
230
234
236
239
232
233
229
240
233
231
227
232
227
233
234
232
226
236
240
236
228
233
234
237
240
231
233
238
245
232
227
231
233
233
239
228
232
228
243
234
235
231
235
230
239
238
234
225
236
238
233
225
230
230
233
235
227
227
230
243
232
230
227
237
228
236
233
231
224
235
238
235
225
232
233
238
241
235
236
235
242
234
232
231
233
232
233
233
231
225
238
236
235
226
233
233
242
241
231
227
239
241
234
227
234
234
234
238
233
229
231
238
237
234
233
237
230
237
241
235
229
237
242
234
226
232
231
238
242
231
233
239
248
240
233
236
239
244
244
235
235
239
247
237
234
238
240
243
245
238
240
239
251
238
236
238
240
239
243
235
234
236
246
240
234
234
240
238
242
240
235
232
241
238
231
228
232
228
230
233
226
224
229
236
229
225
227
231
233
234
228
228
224
234
234
232
222
226
228
236
240
226
228
234
243
230
230
228
233
229
235
229
230
223
235
232
232
225
230
229
232
238
229
231
228
244
230
229
230
235
229
237
235
233
224
240
239
236
227
234
235
240
241
239
231
241
243
237
230
236
236
241
239
231
233
237
244
235
233
234
239
240
243
237
235
235
247
240
237
231
235
231
240
235
235
233
249
242
239
234
241
234
239
241
237
229
241
241
236
229
237
238
242
244
240
234
246
246
243
234
238
239
248
249
241
236
244
245
244
234
238
237
245
246
240
236
249
248
244
239
243
240
249
248
240
237
247
246
243
235
239
236
244
248
239
231
240
245
237
227
231
232
236
237
231
228
233
242
235
232
234
239
240
239
237
234
234
243
240
238
231
232
232
236
240
230
230
235
242
235
232
234
237
241
245
235
233
236
246
234
233
233
241
239
243
239
239
239
252
239
236
235
242
235
240
237
235
230
241
241
237
232
243
235
241
243
240
234
244
245
240
230
237
237
240
246
239
238
250
250
247
239
244
240
247
245
240
237
246
242
241
234
237
233
239
242
236
229
242
243
237
232
236
234
240
244
235
231
239
246
235
229
231
236
240
241
232
232
235
247
236
232
234
239
237
239
231
236
229
240
233
234
229
234
228
237
236
233
226
239
239
235
225
229
230
234
238
227
225
228
241
230
229
227
233
226
235
234
233
224
236
240
233
227
233
231
235
236
232
230
230
239
233
232
228
236
232
237
237
232
226
237
240
236
223
231
230
237
237
229
230
232
240
232
229
231
233
233
235
232
230
228
235
231
229
224
228
226
233
237
226
224
232
241
233
225
227
232
230
231
229
225
222
233
235
229
223
228
229
233
237
228
228
234
241
231
227
230
231
233
233
228
228
226
235
234
231
227
227
227
235
242
229
225
235
239
233
225
230
231
233
236
229
226
229
238
230
227
228
234
229
232
233
228
223
232
237
228
222
225
227
230
233
227
226
225
235
235
232
226
228
227
231
235
224
225
230
236
228
225
227
234
234
239
232
235
235
244
239
237
235
238
234
241
242
235
230
240
242
239
233
237
235
240
246
235
230
238
245
234
228
231
236
235
236
230
234
233
246
235
235
234
242
240
244
237
237
235
246
238
241
232
239
234
242
238
237
231
244
239
238
232
238
232
241
239
235
229
242
242
236
229
235
233
240
241
234
228
238
247
237
229
236
236
241
241
234
236
233
245
237
232
235
237
240
241
233
236
235
245
235
234
229
235
230
238
230
230
225
238
235
233
226
233
229
240
241
236
231
241
244
235
229
236
231
236
237
231
228
229
243
234
230
227
238
233
237
236
235
228
242
241
238
228
231
231
237
238
232
228
237
240
235
229
233
233
238
236
235
231
233
237
230
229
226
228
226
235
238
230
227
238
244
235
225
233
233
238
237
232
229
233
243
233
229
236
239
237
237
239
238
234
244
242
236
234
238
236
239
237
234
232
239
243
237
230
234
233
244
243
232
232
239
242
235
230
232
230
237
240
228
228
234
242
230
229
235
236
238
240
236
235
234
246
237
232
232
234
234
236
237
234
229
238
241
235
229
230
231
235
238
229
228
234
238
231
226
229
232
238
240
230
230
234
244
232
234
231
233
232
237
235
229
225
235
236
233
227
229
229
233
242
231
229
236
246
234
231
232
240
237
239
233
235
236
247
239
238
235
242
238
245
240
240
234
244
241
240
232
236
235
242
241
237
230
242
241
238
233
235
233
240
242
234
228
238
243
232
229
232
234
237
240
230
230
230
244
232
233
229
235
229
235
233
230
223
235
237
233
223
231
230
238
239
228
230
237
244
234
226
232
234
237
238
228
230
230
241
230
233
229
234
231
239
236
236
228
241
238
235
232
237
230
240
241
236
230
242
247
241
232
240
239
246
246
242
233
247
245
242
231
237
234
241
243
236
232
240
244
241
232
236
236
243
244
218
211
174
193
173
166
197
196
211
222
212
229
231
199
192
221
234
242
238
233
194
204
227
190
191
205
198
189
175
162
150
155
159
167
183
154
165
164
162
153
151
162
158
153
148
158
165
149
150
142
148
358
263
249
255
251
247
240
244
246
248
246
243
241
251
243
240
241
244
241
244
242
237
241
252
241
240
241
244
242
246
240
236
237
249
241
234
231
239
237
240
238
233
235
244
240
235
230
236
233
236
237
233
232
240
240
237
231
235
234
241
243
234
231
241
244
238
231
233
233
240
244
231
229
237
242
234
228
235
234
237
240
235
231
235
243
234
230
232
238
236
235
235
231
231
242
241
236
234
237
237
243
242
238
234
242
245
242
234
234
234
242
244
233
233
244
248
238
234
237
237
241
246
232
232
240
246
235
229
233
235
237
242
233
233
233
245
235
233
234
240
235
239
240
237
232
243
240
238
232
241
240
243
242
244
237
250
246
244
239
245
241
246
242
240
235
245
238
240
235
239
235
243
242
238
233
246
244
240
234
239
235
243
239
234
231
245
244
238
231
237
235
241
244
237
232
243
247
242
232
235
235
241
244
236
233
241
245
239
233
236
237
244
247
235
233
241
245
234
229
231
233
238
242
231
231
235
247
233
232
236
237
237
242
165
305
234
244
232
232
230
238
232
239
234
236
230
244
242
238
227
235
232
238
238
231
227
236
242
235
226
231
232
238
239
230
231
232
240
229
232
229
233
228
235
232
235
227
242
238
239
232
239
236
244
247
238
230
244
247
239
230
237
235
243
243
238
234
244
248
242
234
243
239
244
247
238
235
245
245
244
234
240
239
250
248
240
236
246
249
244
234
239
235
245
247
236
230
244
242
237
228
235
231
237
240
233
230
242
249
238
229
238
237
243
243
236
235
239
250
240
235
239
239
246
250
239
237
244
249
244
233
238
237
247
245
238
233
244
248
238
230
239
237
242
245
235
233
240
246
240
233
238
238
242
244
239
235
239
248
243
236
238
242
244
244
239
237
240
249
242
233
236
239
244
243
235
235
240
247
240
236
236
238
239
240
238
234
232
240
236
236
232
233
232
239
243
235
228
243
241
235
227
235
235
238
241
232
228
237
245
239
232
240
241
247
250
241
239
241
250
243
234
239
239
243
247
237
236
244
250
244
236
239
239
248
250
237
236
245
249
240
234
238
237
244
247
237
233
245
246
239
232
237
235
239
246
238
233
241
249
239
232
237
238
244
249
237
235
244
251
243
232
235
237
242
246
236
237
247
253
247
243
247
242
249
249
241
240
249
248
243
243
244
241
246
244
239
236
246
246
242
235
240
237
241
245
237
232
242
246
239
232
233
234
237
239
232
230
239
243
237
231
235
236
241
242
231
233
234
243
232
232
229
234
237
241
236
235
234
245
238
236
234
238
233
240
239
236
231
242
241
237
237
242
237
242
243
236
233
242
244
238
231
235
235
240
245
235
232
241
248
244
236
241
240
246
248
240
238
247
246
241
233
236
234
241
243
235
234
246
247
242
238
240
241
244
249
242
236
247
250
244
239
165
322
246
244
238
234
243
240
239
233
238
238
242
240
240
235
248
245
240
236
243
239
245
243
239
237
248
243
243
239
244
237
244
243
240
234
245
242
238
234
241
235
242
242
237
235
248
244
241
234
240
238
243
244
239
232
244
244
240
236
241
239
247
248
247
241
250
249
248
242
246
242
250
246
243
241
252
245
244
237
246
243
248
241
242
236
250
238
238
235
241
237
245
239
240
236
247
237
236
235
244
237
244
241
244
240
255
246
242
235
244
243
247
236
238
240
255
244
241
241
246
246
251
241
242
244
252
241
239
241
242
244
250
238
235
241
249
236
230
233
233
237
241
229
227
227
239
228
226
222
232
226
231
227
229
223
232
233
229
223
227
228
234
236
227
230
232
240
230
229
227
233
229
234
228
226
221
232
231
227
219
221
221
225
232
221
221
221
234
225
226
221
226
221
228
230
219
218
224
232
218
220
215
225
220
228
229
224
223
228
237
227
223
226
229
233
234
229
230
226
236
233
235
226
235
230
239
236
232
226
238
237
233
226
235
232
238
244
235
234
244
251
244
237
245
243
250
254
249
239
248
252
248
235
244
242
247
243
244
237
252
247
245
237
245
243
249
243
241
241
255
243
242
239
243
240
246
239
241
238
249
239
239
239
242
241
245
239
236
234
247
233
232
228
238
236
238
235
238
233
248
241
240
237
246
242
248
240
242
241
251
244
244
243
248
251
253
244
243
250
256
247
238
243
240
246
248
237
232
243
248
239
232
238
237
242
246
238
235
240
247
238
229
232
237
236
239
235
237
236
247
238
238
237
242
244
247
240
239
238
250
240
237
235
241
240
245
239
239
241
252
242
241
242
245
245
246
239
239
240
249
239
234
237
239
243
244
237
236
239
249
242
235
234
239
239
242
234
232
234
247
236
233
233
240
241
240
234
235
236
247
235
235
235
239
238
242
235
235
230
244
236
234
232
237
232
241
238
237
232
243
240
237
229
240
232
238
236
239
232
244
242
243
234
241
241
246
243
241
235
246
243
243
235
238
235
245
241
237
234
245
242
244
234
241
234
246
244
238
232
249
246
241
235
241
237
244
244
242
234
248
249
245
235
243
237
246
244
242
234
244
242
240
236
237
235
243
244
239
233
246
246
241
232
242
237
245
244
239
233
245
242
240
233
241
235
247
246
243
235
248
247
244
238
245
236
245
246
241
234
248
248
243
234
243
240
246
243
240
235
248
243
240
231
237
234
241
236
234
235
244
239
240
235
240
235
244
243
238
234
246
239
237
233
239
235
244
245
242
237
251
249
245
241
248
244
248
245
243
241
251
243
238
242
245
246
249
240
241
244
252
244
236
240
239
248
245
236
236
240
247
242
234
237
237
244
247
238
233
241
247
237
232
235
236
239
238
234
232
234
246
235
233
234
240
237
239
237
238
231
167
313
238
230
232
229
238
238
235
228
239
240
238
227
234
231
239
238
234
229
242
243
235
206
261
238
246
247
238
235
243
249
242
234
241
237
246
249
242
235
247
253
248
240
247
243
251
250
244
241
254
248
245
238
243
240
245
238
237
236
246
238
237
232
236
231
238
235
235
228
238
236
235
228
232
228
240
240
232
229
241
246
240
231
240
239
247
248
244
234
249
249
244
236
244
241
248
245
246
241
251
246
249
243
247
244
251
245
242
244
254
245
242
237
243
245
248
239
236
241
253
241
236
240
243
243
247
242
238
241
251
240
235
239
241
244
245
240
241
243
252
244
236
